Data from B.p.hirsuta_ven_HW_orange_right_1_Reflection__0__47.txt Node

Date: Tue Dec 13 09:16:30 EST 2022
User: abbyrobinson
Spectrometer: USB2G8287
Scans to average: 10
Trigger mode: 4
Integration Time (sec): 1.000000E-1
Electric dark correction enabled: true
Boxcar width: 5
XAxis mode: Wavelengths
Number of Pixels in Spectrum: 2048
>>>>>Begin Spectral Data<<<<<
177.272	128.79
177.658	137.52
178.044	98.53
178.43	89.74
178.816	86.94
179.203	73.4
179.589	109.9
179.975	144.14
180.361	135.69
180.747	116.93
181.133	146.69
181.519	145.75
181.904	137.52
182.29	114.74
182.676	114.19
183.062	121.86
183.447	77.92
183.833	87.65
184.219	91.13
184.604	107.48
184.99	185.28
185.375	275.15
185.761	860.27
186.146	-612.53
186.531	-439.28
186.917	-233.5
187.302	-143.79
187.687	-119.66
188.073	-113.27
188.458	-77.33
188.843	-49.85
189.228	-46.69
189.613	-35.98
189.998	-43.09
190.383	-69.88
190.768	-73
191.153	-87.87
191.538	-92.45
191.923	-92.54
192.307	-82.89
192.692	-83.03
193.077	-75.87
193.461	-78.25
193.846	-75.44
194.231	-75.45
194.615	-53.17
195	-37.94
195.384	-25.45
195.769	-28.92
196.153	-30.44
196.537	-26.83
196.922	-18.55
197.306	-20.34
197.69	-11.4
198.074	-8.08
198.458	-1.18
198.843	-5.63
199.227	-14.23
199.611	-23.53
199.995	-9.48
200.379	-5.64
200.763	-4.55
201.146	-6.46
201.53	-6.38
201.914	-6.71
202.298	-2.77
202.681	-5.04
203.065	-8.61
203.449	-0.29
203.832	5.05
204.216	-3.2
204.599	34.54
204.983	35.73
205.366	33.25
205.75	33.37
206.133	24.34
206.516	22.71
206.9	23.37
207.283	26.93
207.666	23.9
208.049	25.14
208.432	30.51
208.815	-7.44
209.198	-17.49
209.581	-17.15
209.964	-18.65
210.347	-6.68
210.73	-8.96
211.113	-10.77
211.496	-13.51
211.879	-11.25
212.261	-20.35
212.644	-16.13
213.027	-18.72
213.409	-6.43
213.792	6.73
214.174	7.72
214.557	3.01
214.939	3.13
215.322	8.63
215.704	10.31
216.086	11.08
216.469	14.32
216.851	5.69
217.233	-3.81
217.615	-8.09
217.997	-25.27
218.379	-23.91
218.761	-17.07
219.143	-16.52
219.525	-25.34
219.907	-23
220.289	-25.49
220.671	-26.81
221.053	-22.05
221.435	-19.9
221.816	-21.69
222.198	-12.95
222.58	-6.31
222.961	-3.48
223.343	0.51
223.724	6.5
224.106	7.1
224.487	1.02
224.869	3.56
225.25	1.7
225.631	10.3
226.013	6.73
226.394	1.34
226.775	-3.89
227.156	-4.97
227.537	-5.93
227.919	-8.7
228.3	-13.49
228.681	-12.1
229.062	-8.97
229.442	-4.11
229.823	-10.5
230.204	-8.58
230.585	-6.39
230.966	-5.2
231.347	-4.31
231.727	-3.7
232.108	-1.01
232.488	1.79
232.869	7.17
233.25	7.15
233.63	6.56
234.01	8.28
234.391	8.94
234.771	8.9
235.152	9.38
235.532	8.03
235.912	7.94
236.292	7.21
236.672	6.89
237.053	5.32
237.433	5.05
237.813	4.69
238.193	5.56
238.573	6.53
238.953	6.83
239.333	6.17
239.712	7.55
240.092	7.98
240.472	7.99
240.852	8.21
241.231	8.97
241.611	8.94
241.991	9.18
242.37	8.78
242.75	8.44
243.129	8.51
243.509	9.05
243.888	8.94
244.267	8.67
244.647	8.77
245.026	9.11
245.405	8.9
245.784	9.29
246.164	9.29
246.543	9.36
246.922	9.49
247.301	9.8
247.68	10.04
248.059	9.95
248.438	10.22
248.817	10.52
249.195	10.43
249.574	10.58
249.953	10.71
250.332	11
250.71	11.26
251.089	11.35
251.468	11.15
251.846	11.2
252.225	11.47
252.603	11.54
252.982	11.65
253.36	11.9
253.738	11.95
254.117	11.84
254.495	11.79
254.873	11.8
255.251	11.86
255.63	12.02
256.008	12.15
256.386	12.27
256.764	12.41
257.142	12.34
257.52	12.26
257.898	12.29
258.276	12.45
258.653	12.55
259.031	12.64
259.409	12.79
259.787	12.85
260.164	12.78
260.542	12.79
260.92	12.82
261.297	12.97
261.675	13.05
262.052	13.09
262.43	13.08
262.807	13.17
263.184	13.27
263.562	13.35
263.939	13.47
264.316	13.57
264.693	13.6
265.07	13.61
265.448	13.64
265.825	13.73
266.202	13.85
266.579	13.96
266.956	14.03
267.333	14.16
267.709	14.26
268.086	14.3
268.463	14.36
268.84	14.43
269.216	14.57
269.593	14.61
269.97	14.59
270.346	14.6
270.723	14.59
271.099	14.54
271.476	14.47
271.852	14.4
272.229	14.4
272.605	14.4
272.981	14.48
273.358	14.5
273.734	14.51
274.11	14.58
274.486	14.67
274.862	14.78
275.238	14.91
275.614	14.92
275.99	14.96
276.366	14.89
276.742	14.92
277.118	14.84
277.494	14.9
277.87	14.96
278.245	14.98
278.621	15
278.997	14.9
279.372	14.86
279.748	14.97
280.123	14.97
280.499	15.08
280.874	15.14
281.25	15.14
281.625	15
282	14.94
282.376	14.94
282.751	14.88
283.126	14.89
283.501	14.86
283.876	14.81
284.252	14.88
284.627	14.93
285.002	14.82
285.377	14.77
285.751	14.78
286.126	14.82
286.501	14.79
286.876	14.86
287.251	14.87
287.625	14.89
288	14.92
288.375	14.81
288.749	14.86
289.124	14.91
289.498	14.88
289.873	14.89
290.247	14.84
290.622	14.8
290.996	14.71
291.37	14.69
291.745	14.65
292.119	14.62
292.493	14.6
292.867	14.39
293.241	14.38
293.616	14.41
293.99	14.26
294.364	14.16
294.737	14.1
295.111	14.07
295.485	14.09
295.859	13.97
296.233	13.88
296.607	13.82
296.98	13.84
297.354	13.71
297.728	13.58
298.101	13.59
298.475	13.54
298.848	13.54
299.222	13.43
299.595	13.25
299.968	13.14
300.342	13
300.715	12.85
301.088	12.77
301.462	12.69
301.835	12.67
302.208	12.5
302.581	12.39
302.954	12.27
303.327	12.27
303.7	12.27
304.073	12.2
304.446	12.25
304.819	12.22
305.192	12.07
305.564	11.95
305.937	11.84
306.31	11.88
306.682	11.86
307.055	11.71
307.428	11.5
307.8	11.41
308.173	11.31
308.545	11.06
308.917	10.95
309.29	10.93
309.662	10.92
310.034	10.86
310.407	10.79
310.779	10.67
311.151	10.65
311.523	10.71
311.895	10.6
312.267	10.66
312.639	10.57
313.011	10.49
313.383	10.33
313.755	10.14
314.127	9.96
314.498	9.83
314.87	9.73
315.242	9.65
315.614	9.51
315.985	9.32
316.357	9.19
316.728	9.16
317.1	9.08
317.471	9.03
317.843	9.04
318.214	9.09
318.585	9.06
318.957	9.1
319.328	9.08
319.699	8.97
320.07	9.03
320.441	8.86
320.813	8.75
321.184	8.78
321.555	8.7
321.926	8.66
322.297	8.46
322.667	8.37
323.038	8.22
323.409	8.03
323.78	7.96
324.151	7.82
324.521	7.81
324.892	7.76
325.262	7.68
325.633	7.65
326.004	7.51
326.374	7.47
326.744	7.29
327.115	7.17
327.485	7.12
327.855	7.05
328.226	7.06
328.596	7.08
328.966	6.93
329.336	6.75
329.706	6.69
330.076	6.69
330.447	6.67
330.816	6.75
331.186	6.73
331.556	6.68
331.926	6.65
332.296	6.53
332.666	6.42
333.036	6.46
333.405	6.37
333.775	6.24
334.144	6.13
334.514	6.05
334.884	5.86
335.253	5.83
335.623	5.75
335.992	5.71
336.361	5.64
336.731	5.56
337.1	5.45
337.469	5.52
337.838	5.55
338.208	5.55
338.577	5.57
338.946	5.68
339.315	5.58
339.684	5.71
340.053	5.71
340.422	5.7
340.79	5.67
341.159	5.68
341.528	5.56
341.897	5.53
342.266	5.45
342.634	5.43
343.003	5.26
343.371	5.22
343.74	5.04
344.108	4.96
344.477	4.96
344.845	4.88
345.214	4.81
345.582	4.87
345.95	4.8
346.319	4.73
346.687	4.56
347.055	4.6
347.423	4.66
347.791	4.63
348.159	4.63
348.527	4.61
348.895	4.71
349.263	4.78
349.631	4.72
349.999	4.67
350.367	4.72
350.734	4.74
351.102	4.76
351.47	4.73
351.837	4.66
352.205	4.62
352.573	4.55
352.94	4.39
353.308	4.25
353.675	4.24
354.042	4.17
354.41	4.09
354.777	4.16
355.144	4.04
355.511	4.05
355.879	4.04
356.246	3.98
356.613	3.93
356.98	4
357.347	4.07
357.714	3.96
358.081	4.05
358.448	4.1
358.815	3.92
359.181	3.84
359.548	3.79
359.915	3.85
360.282	3.81
360.648	3.85
361.015	3.79
361.381	3.63
361.748	3.59
362.114	3.55
362.481	3.56
362.847	3.61
363.214	3.65
363.58	3.55
363.946	3.44
364.312	3.4
364.678	3.35
365.045	3.36
365.411	3.41
365.777	3.39
366.143	3.22
366.509	3.08
366.875	3.09
367.241	3.04
367.606	3.02
367.972	3.02
368.338	3.05
368.704	2.98
369.069	2.94
369.435	2.91
369.801	2.91
370.166	2.92
370.532	2.96
370.897	2.9
371.263	2.84
371.628	2.87
371.993	2.81
372.359	2.71
372.724	2.65
373.089	2.62
373.454	2.66
373.82	2.62
374.185	2.64
374.55	2.64
374.915	2.68
375.28	2.8
375.645	2.81
376.01	2.79
376.374	2.79
376.739	2.8
377.104	2.78
377.469	2.74
377.833	2.81
378.198	2.83
378.563	2.72
378.927	2.64
379.292	2.53
379.656	2.46
380.021	2.41
380.385	2.39
380.749	2.4
381.114	2.38
381.478	2.3
381.842	2.19
382.206	2.14
382.571	2.14
382.935	2.15
383.299	2.17
383.663	2.16
384.027	2.15
384.391	2.13
384.755	2.11
385.118	2.11
385.482	2.09
385.846	2.11
386.21	2.08
386.573	2.03
386.937	1.99
387.301	1.94
387.664	1.88
388.028	1.92
388.391	1.97
388.755	1.97
389.118	1.95
389.481	1.99
389.845	2
390.208	2.05
390.571	2.12
390.934	2.09
391.298	2.1
391.661	2.17
392.024	2.15
392.387	2.15
392.75	2.2
393.113	2.21
393.476	2.13
393.838	2.12
394.201	2.07
394.564	2.04
394.927	2.06
395.289	2.12
395.652	2.09
396.015	2.15
396.377	2.11
396.74	2.05
397.102	2.03
397.465	2.05
397.827	2.03
398.189	2.05
398.552	2.06
398.914	2.04
399.276	2
399.638	2.01
400	1.96
400.363	1.91
400.725	1.94
401.087	1.93
401.449	1.95
401.81	1.99
402.172	1.94
402.534	1.95
402.896	1.97
403.258	1.96
403.619	1.96
403.981	1.98
404.343	2.01
404.704	2.04
405.066	2
405.427	1.99
405.789	1.95
406.15	1.99
406.512	1.97
406.873	1.93
407.234	1.92
407.596	1.92
407.957	1.94
408.318	1.91
408.679	1.86
409.04	1.85
409.401	1.8
409.762	1.77
410.123	1.74
410.484	1.71
410.845	1.67
411.206	1.68
411.567	1.69
411.927	1.66
412.288	1.66
412.649	1.94
413.009	2.02
413.37	2.09
413.731	2.12
414.091	2.17
414.452	2.19
414.812	2.23
415.172	2.2
415.533	2.21
415.893	2.18
416.253	2.18
416.613	1.84
416.974	1.77
417.334	1.77
417.694	1.75
418.054	1.7
418.414	1.69
418.774	1.66
419.134	1.66
419.494	1.65
419.853	1.66
420.213	1.67
420.573	1.68
420.933	1.68
421.292	1.67
421.652	1.7
422.011	1.66
422.371	1.7
422.73	1.72
423.09	1.73
423.449	1.68
423.809	1.65
424.168	1.68
424.527	1.75
424.887	1.75
425.246	1.7
425.605	1.6
425.964	1.71
426.323	1.7
426.682	1.73
427.041	1.69
427.4	1.7
427.759	1.75
428.118	1.73
428.477	1.71
428.835	1.72
429.194	1.78
429.553	1.83
429.911	1.79
430.27	1.7
430.629	1.7
430.987	1.72
431.346	1.68
431.704	1.64
432.062	1.67
432.421	1.71
432.779	1.7
433.137	1.73
433.496	1.76
433.854	1.7
434.212	1.75
434.57	1.75
434.928	1.73
435.286	1.79
435.644	1.78
436.002	1.73
436.36	1.73
436.718	1.73
437.075	1.69
437.433	1.65
437.791	1.66
438.149	1.6
438.506	1.6
438.864	1.59
439.221	1.58
439.579	1.56
439.936	1.53
440.294	1.53
440.651	1.57
441.009	1.54
441.366	1.51
441.723	1.52
442.08	1.53
442.437	1.53
442.795	1.52
443.152	1.47
443.509	1.5
443.866	1.56
444.223	1.54
444.58	1.5
444.936	1.52
445.293	1.57
445.65	1.61
446.007	1.65
446.363	1.68
446.72	1.71
447.077	1.74
447.433	1.76
447.79	1.72
448.146	1.7
448.503	1.71
448.859	1.71
449.215	1.71
449.572	1.69
449.928	1.7
450.284	1.68
450.641	1.63
450.997	1.63
451.353	1.64
451.709	1.68
452.065	1.73
452.421	1.7
452.777	1.72
453.133	1.74
453.488	1.75
453.844	1.78
454.2	1.74
454.556	1.75
454.911	1.79
455.267	1.81
455.623	1.78
455.978	1.73
456.334	1.8
456.689	1.76
457.045	1.73
457.4	1.7
457.755	1.68
458.111	1.67
458.466	1.7
458.821	1.68
459.176	1.66
459.531	1.7
459.886	1.71
460.242	1.75
460.597	1.8
460.951	1.86
461.306	1.93
461.661	1.91
462.016	1.96
462.371	1.99
462.726	1.98
463.08	2.04
463.435	2.03
463.79	2.08
464.144	1.99
464.499	1.94
464.853	1.94
465.208	1.89
465.562	1.88
465.916	1.91
466.271	1.93
466.625	1.96
466.979	1.85
467.333	1.89
467.688	1.83
468.042	1.86
468.396	1.92
468.75	1.89
469.104	1.92
469.458	1.93
469.811	1.87
470.165	1.86
470.519	1.87
470.873	1.9
471.227	1.8
471.58	1.83
471.934	1.79
472.287	1.74
472.641	1.79
472.995	1.82
473.348	1.87
473.701	1.92
474.055	1.96
474.408	1.97
474.761	2.02
475.115	2.09
475.468	2.08
475.821	2.09
476.174	2.11
476.527	2.05
476.88	2.02
477.233	2.01
477.586	2.01
477.939	2.01
478.292	2.01
478.645	2.01
478.998	2.04
479.35	2.12
479.703	2.21
480.056	2.23
480.408	2.25
480.761	2.25
481.113	2.29
481.466	2.32
481.818	2.3
482.171	2.37
482.523	2.39
482.875	2.38
483.228	2.42
483.58	2.4
483.932	2.42
484.284	2.44
484.636	2.46
484.988	2.48
485.34	2.45
485.692	2.48
486.044	2.47
486.396	2.45
486.748	2.46
487.1	2.43
487.451	2.45
487.803	2.49
488.155	2.54
488.506	2.55
488.858	2.55
489.209	2.62
489.561	2.66
489.912	2.65
490.264	2.67
490.615	2.74
490.966	2.79
491.318	2.81
491.669	2.77
492.02	2.78
492.371	2.8
492.722	2.85
493.073	2.83
493.424	2.84
493.775	2.86
494.126	2.89
494.477	2.84
494.828	2.85
495.179	2.87
495.53	2.9
495.88	2.96
496.231	2.98
496.582	2.97
496.932	3.04
497.283	3.02
497.633	3.1
497.984	3.11
498.334	3.17
498.684	3.23
499.035	3.24
499.385	3.29
499.735	3.28
500.086	3.31
500.436	3.35
500.786	3.34
501.136	3.38
501.486	3.37
501.836	3.41
502.186	3.46
502.536	3.45
502.886	3.52
503.235	3.54
503.585	3.6
503.935	3.61
504.285	3.66
504.634	3.73
504.984	3.8
505.333	3.86
505.683	3.85
506.032	3.85
506.382	3.91
506.731	3.94
507.08	3.94
507.43	3.91
507.779	3.97
508.128	4
508.477	4.01
508.826	4.02
509.176	4.07
509.525	4.13
509.874	4.16
510.222	4.15
510.571	4.19
510.92	4.35
511.269	4.47
511.618	4.52
511.967	4.57
512.315	4.62
512.664	4.68
513.012	4.73
513.361	4.85
513.71	4.93
514.058	5.01
514.406	5.02
514.755	4.97
515.103	5.04
515.451	5.08
515.8	5.14
516.148	5.2
516.496	5.27
516.844	5.33
517.192	5.33
517.54	5.38
517.888	5.38
518.236	5.45
518.584	5.57
518.932	5.63
519.28	5.73
519.628	5.8
519.975	5.89
520.323	5.95
520.671	5.99
521.018	6.06
521.366	6.16
521.713	6.37
522.061	6.54
522.408	6.59
522.756	6.68
523.103	6.71
523.45	6.79
523.798	6.83
524.145	6.9
524.492	6.99
524.839	7.11
525.186	7.19
525.533	7.17
525.88	7.22
526.227	7.3
526.574	7.41
526.921	7.56
527.268	7.7
527.615	7.8
527.961	7.9
528.308	8.02
528.655	8.07
529.001	8.12
529.348	8.25
529.694	8.35
530.041	8.48
530.387	8.58
530.734	8.61
531.08	8.71
531.426	8.78
531.773	8.89
532.119	9.02
532.465	9.14
532.811	9.32
533.157	9.44
533.503	9.58
533.849	9.66
534.195	9.73
534.541	9.9
534.887	9.97
535.233	10.16
535.579	10.24
535.924	10.36
536.27	10.47
536.616	10.57
536.961	10.68
537.307	10.83
537.652	10.98
537.998	11.13
538.343	11.24
538.689	11.41
539.034	11.55
539.379	11.69
539.725	11.83
540.07	11.96
540.415	12.07
540.76	12.25
541.105	12.4
541.45	12.55
541.795	12.67
542.14	12.77
542.485	12.86
542.83	12.99
543.175	13.18
543.519	13.29
543.864	13.45
544.209	13.64
544.554	13.81
544.898	13.88
545.243	14.02
545.587	14.16
545.932	14.32
546.276	14.48
546.621	14.62
546.965	14.79
547.309	14.98
547.653	15.09
547.998	15.22
548.342	15.29
548.686	15.47
549.03	15.66
549.374	15.84
549.718	16.04
550.062	16.25
550.406	16.44
550.75	16.56
551.094	16.74
551.437	16.91
551.781	17.05
552.125	17.2
552.468	17.38
552.812	17.49
553.156	17.68
553.499	17.85
553.843	17.93
554.186	18.07
554.529	18.22
554.873	18.33
555.216	18.47
555.559	18.68
555.902	18.87
556.246	18.95
556.589	19.12
556.932	19.22
557.275	19.4
557.618	19.55
557.961	19.66
558.304	19.83
558.646	19.96
558.989	20.12
559.332	20.25
559.675	20.38
560.017	20.55
560.36	20.68
560.703	20.87
561.045	21
561.388	21.19
561.73	21.36
562.073	21.56
562.415	21.74
562.757	21.93
563.1	22.13
563.442	22.31
563.784	22.49
564.126	22.68
564.468	22.83
564.81	22.94
565.152	23.14
565.494	23.34
565.836	23.39
566.178	23.54
566.52	23.69
566.862	23.8
567.204	23.99
567.545	24.19
567.887	24.34
568.229	24.46
568.57	24.65
568.912	24.71
569.253	24.83
569.595	25.06
569.936	25.23
570.277	25.44
570.619	25.59
570.96	25.74
571.301	25.87
571.642	26.03
571.984	26.2
572.325	26.33
572.666	26.47
573.007	26.59
573.348	26.71
573.689	26.85
574.03	26.96
574.37	27.08
574.711	27.22
575.052	27.35
575.393	27.45
575.733	27.63
576.074	27.77
576.414	27.98
576.755	28.12
577.095	28.23
577.436	28.35
577.776	28.47
578.117	28.63
578.457	28.74
578.797	28.84
579.137	28.97
579.478	29.03
579.818	29.17
580.158	29.22
580.498	29.31
580.838	29.44
581.178	29.57
581.518	29.68
581.858	29.8
582.197	29.94
582.537	30.1
582.877	30.25
583.217	30.42
583.556	30.53
583.896	30.68
584.235	30.84
584.575	30.99
584.914	31.13
585.254	31.28
585.593	31.43
585.933	31.54
586.272	31.67
586.611	31.75
586.95	31.85
587.289	32.02
587.629	32.16
587.968	32.27
588.307	32.38
588.646	32.49
588.985	32.61
589.323	32.69
589.662	32.81
590.001	32.91
590.34	33.06
590.679	33.23
591.017	33.3
591.356	33.43
591.695	33.54
592.033	33.68
592.372	33.83
592.71	33.92
593.048	34.09
593.387	34.18
593.725	34.28
594.063	34.43
594.402	34.5
594.74	34.62
595.078	34.78
595.416	34.93
595.754	35.06
596.092	35.16
596.43	35.25
596.768	35.41
597.106	35.57
597.444	35.69
597.781	35.79
598.119	35.99
598.457	36.11
598.795	36.16
599.132	36.26
599.47	36.39
599.807	36.52
600.145	36.7
600.482	36.82
600.82	36.94
601.157	37.06
601.494	37.17
601.831	37.18
602.169	37.3
602.506	37.42
602.843	37.54
603.18	37.64
603.517	37.8
603.854	37.88
604.191	37.95
604.528	38.05
604.865	38.19
605.202	38.31
605.538	38.45
605.875	38.56
606.212	38.72
606.548	38.76
606.885	38.9
607.222	39
607.558	39.1
607.895	39.19
608.231	39.31
608.567	39.41
608.904	39.47
609.24	39.6
609.576	39.7
609.912	39.78
610.248	39.98
610.585	40.05
610.921	40.13
611.257	40.22
611.593	40.37
611.929	40.46
612.264	40.56
612.6	40.71
612.936	40.79
613.272	40.91
613.608	41.01
613.943	41.07
614.279	41.16
614.614	41.26
614.95	41.4
615.285	41.45
615.621	41.57
615.956	41.67
616.292	41.76
616.627	41.86
616.962	41.91
617.297	42.04
617.632	42.17
617.968	42.23
618.303	42.36
618.638	42.41
618.973	42.54
619.308	42.65
619.643	42.78
619.977	42.88
620.312	43.05
620.647	43.14
620.982	43.19
621.316	43.24
621.651	43.41
621.986	43.5
622.32	43.61
622.655	43.74
622.989	43.84
623.324	43.93
623.658	44.01
623.992	44.04
624.326	44.17
624.661	44.28
624.995	44.4
625.329	44.46
625.663	44.57
625.997	44.7
626.331	44.81
626.665	44.85
626.999	44.85
627.333	44.91
627.667	45.03
628.001	45.1
628.334	45.14
628.668	45.25
629.002	45.35
629.335	45.41
629.669	45.49
630.002	45.53
630.336	45.59
630.669	45.69
631.003	45.78
631.336	45.86
631.669	45.95
632.003	46.07
632.336	46.03
632.669	46.06
633.002	46.11
633.335	46.16
633.668	46.25
634.001	46.38
634.334	46.45
634.667	46.57
635	46.56
635.333	46.62
635.665	46.76
635.998	47
636.331	47.11
636.663	47.2
636.996	47.34
637.328	47.38
637.661	47.45
637.993	47.57
638.326	47.58
638.658	47.74
638.99	47.8
639.323	47.77
639.655	47.81
639.987	47.94
640.319	48.11
640.651	48.06
640.983	48.17
641.315	48.23
641.647	48.35
641.979	48.48
642.311	48.51
642.643	48.57
642.975	48.64
643.306	48.77
643.638	48.74
643.97	48.78
644.301	48.98
644.633	48.99
644.964	49.06
645.296	49.1
645.627	49.11
645.959	49.17
646.29	49.33
646.621	49.33
646.952	49.33
647.284	49.46
647.615	49.47
647.946	49.49
648.277	49.63
648.608	49.71
648.939	49.9
649.27	50.12
649.601	50.3
649.931	50.33
650.262	50.53
650.593	50.74
650.924	50.83
651.254	50.94
651.585	51.04
651.915	51.15
652.246	51.32
652.576	51.33
652.907	51.37
653.237	51.4
653.568	51.57
653.898	51.6
654.228	51.62
654.558	51.7
654.888	51.77
655.219	51.81
655.549	51.93
655.879	51.94
656.209	52.04
656.539	52.19
656.868	52.33
657.198	52.44
657.528	52.51
657.858	52.63
658.188	52.72
658.517	52.79
658.847	52.88
659.176	52.96
659.506	53.09
659.835	53.18
660.165	53.26
660.494	53.35
660.824	53.41
661.153	53.52
661.482	53.58
661.811	53.64
662.14	53.73
662.47	53.79
662.799	53.85
663.128	53.87
663.457	53.93
663.786	54
664.114	54.03
664.443	54.09
664.772	54.1
665.101	54.17
665.43	54.2
665.758	54.23
666.087	54.34
666.415	54.35
666.744	54.39
667.072	54.46
667.401	54.44
667.729	54.58
668.058	54.54
668.386	54.58
668.714	54.59
669.042	54.6
669.371	54.79
669.699	54.75
670.027	54.81
670.355	54.82
670.683	54.81
671.011	54.86
671.339	54.71
671.666	54.77
671.994	54.86
672.322	54.96
672.65	55.05
672.977	55.04
673.305	55.14
673.633	55.3
673.96	55.42
674.288	55.58
674.615	55.67
674.943	55.89
675.27	56.04
675.597	56.13
675.924	56.1
676.252	56.1
676.579	56.21
676.906	56.37
677.233	56.39
677.56	56.54
677.887	56.58
678.214	56.67
678.541	56.91
678.868	56.99
679.195	57.01
679.521	57.03
679.848	57.29
680.175	57.32
680.501	57.35
680.828	57.5
681.154	57.44
681.481	57.41
681.807	57.46
682.134	57.35
682.46	57.3
682.787	57.36
683.113	57.59
683.439	57.55
683.765	57.63
684.091	57.67
684.417	57.69
684.743	57.79
685.069	57.99
685.395	57.97
685.721	57.99
686.047	58.02
686.373	58.24
686.699	58.17
687.024	58.27
687.35	58.3
687.676	58.32
688.001	58.35
688.327	58.37
688.652	58.26
688.978	58.42
689.303	58.48
689.629	58.7
689.954	58.6
690.279	58.74
690.604	58.8
690.93	58.81
691.255	58.82
691.58	58.85
691.905	58.85
692.23	59.01
692.555	59.01
692.88	59.04
693.204	59.01
693.529	59.06
693.854	59.06
694.179	59.1
694.503	59.17
694.828	59.33
695.153	59.52
695.477	59.58
695.802	59.61
696.126	59.59
696.451	59.62
696.775	59.66
697.099	59.69
697.423	59.85
697.748	59.85
698.072	59.99
698.396	60.03
698.72	59.96
699.044	60.08
699.368	60.16
699.692	60.25
700.016	60.3
700.34	60.35
700.664	60.51
700.987	60.45
701.311	60.49
701.635	60.49
701.958	60.59
702.282	60.52
702.606	60.56
702.929	60.56
703.252	60.63
703.576	60.73
703.899	60.69
704.223	60.58
704.546	60.47
704.869	60.46
705.192	60.34
705.515	60.31
705.838	60.3
706.161	60.33
706.484	60.2
706.807	60.19
707.13	60.04
707.453	60.1
707.776	60.07
708.099	60.27
708.421	60.41
708.744	60.42
709.067	60.46
709.389	60.66
709.712	60.7
710.034	60.96
710.357	60.93
710.679	61.04
711.001	61.16
711.324	61.37
711.646	61.44
711.968	61.4
712.29	61.59
712.612	61.6
712.935	61.65
713.257	61.66
713.579	61.62
713.9	61.78
714.222	61.91
714.544	61.82
714.866	61.81
715.188	61.78
715.509	61.85
715.831	61.9
716.153	61.85
716.474	61.92
716.796	62.01
717.117	61.94
717.439	62
717.76	62.04
718.081	62.07
718.403	62.16
718.724	62.33
719.045	62.38
719.366	62.27
719.687	62.39
720.009	62.3
720.33	62.22
720.651	62.3
720.971	62.23
721.292	62.3
721.613	62.44
721.934	62.34
722.255	62.15
722.575	62.1
722.896	62.25
723.217	62.28
723.537	62.35
723.858	62.38
724.178	62.44
724.499	62.42
724.819	62.27
725.139	62.23
725.46	62.23
725.78	62.29
726.1	62.33
726.42	62.18
726.74	62.24
727.06	62.16
727.38	62.18
727.7	62.33
728.02	62.57
728.34	62.66
728.66	62.78
728.98	62.76
729.299	63.03
729.619	63.23
729.939	63.37
730.258	63.34
730.578	63.34
730.897	63.41
731.217	63.39
731.536	63.17
731.856	63.28
732.175	63.22
732.494	63.41
732.814	63.12
733.133	63.05
733.452	63.13
733.771	63.3
734.09	63.35
734.409	63.38
734.728	63.4
735.047	63.44
735.366	63.4
735.684	63.39
736.003	63.45
736.322	63.67
736.641	63.78
736.959	63.79
737.278	63.69
737.596	63.75
737.915	63.85
738.233	63.87
738.552	64.04
738.87	64.08
739.188	64.24
739.507	64.4
739.825	64.35
740.143	64.38
740.461	64.43
740.779	64.36
741.097	64.4
741.415	64.3
741.733	64.38
742.051	64.41
742.369	64.32
742.687	64.27
743.004	64.07
743.322	64.08
743.64	64.16
743.957	64.11
744.275	64.15
744.593	64.27
744.91	64.43
745.227	64.32
745.545	64.44
745.862	64.58
746.179	64.63
746.497	64.72
746.814	64.75
747.131	64.68
747.448	64.71
747.765	64.93
748.082	64.95
748.399	64.83
748.716	64.83
749.033	64.84
749.35	64.81
749.667	64.84
749.983	64.72
750.3	64.87
750.617	64.87
750.933	64.9
751.25	64.9
751.566	64.86
751.883	65.01
752.199	65.11
752.516	65.01
752.832	65.15
753.148	65.08
753.464	65.18
753.781	65.1
754.097	65.05
754.413	64.83
754.729	64.77
755.045	64.69
755.361	64.74
755.677	64.79
755.992	64.74
756.308	64.72
756.624	64.94
756.94	64.88
757.255	64.96
757.571	65.16
757.887	65.64
758.202	65.76
758.518	65.95
758.833	65.79
759.148	65.89
759.464	66.06
759.779	66.12
760.094	66.02
760.41	66.18
760.725	66.08
761.04	65.95
761.355	65.85
761.67	65.9
761.985	65.9
762.3	66
762.615	66
762.93	66.07
763.244	66.12
763.559	66.14
763.874	66.29
764.188	66.35
764.503	66.46
764.818	66.28
765.132	66.28
765.447	66.21
765.761	66.28
766.075	66.31
766.39	66.15
766.704	66.03
767.018	66.06
767.332	65.8
767.646	65.9
767.961	65.82
768.275	65.95
768.589	66.02
768.903	66.05
769.216	66.18
769.53	66.16
769.844	66.39
770.158	66.62
770.472	66.69
770.785	66.93
771.099	66.85
771.413	66.99
771.726	66.95
772.04	66.84
772.353	66.87
772.666	66.8
772.98	66.83
773.293	66.69
773.606	66.65
773.919	66.61
774.233	66.45
774.546	66.66
774.859	66.62
775.172	66.67
775.485	66.69
775.798	66.96
776.111	66.97
776.423	67.06
776.736	67
777.049	66.8
777.362	66.8
777.674	66.8
777.987	66.62
778.299	66.65
778.612	66.86
778.924	66.7
779.237	66.46
779.549	66.36
779.862	66.04
780.174	66.04
780.486	66.28
780.798	66.48
781.11	66.59
781.422	66.35
781.735	66.24
782.046	66.16
782.358	66.43
782.67	66.29
782.982	66.21
783.294	66.59
783.606	66.65
783.917	66.52
784.229	66.36
784.541	66.32
784.852	66.72
785.164	66.8
785.475	66.85
785.787	66.82
786.098	66.96
786.41	66.96
786.721	66.73
787.032	67
787.343	67.02
787.654	67.17
787.966	67.02
788.277	66.89
788.588	67.13
788.899	67.36
789.209	67.46
789.52	67.4
789.831	67.58
790.142	67.71
790.453	67.57
790.763	67.78
791.074	67.77
791.385	67.92
791.695	68.07
792.006	67.67
792.316	67.41
792.626	67.31
792.937	67.33
793.247	67.37
793.557	67.35
793.868	67.31
794.178	67.31
794.488	67.34
794.798	67.29
795.108	67.24
795.418	67.69
795.728	67.63
796.038	67.57
796.348	67.56
796.657	67.69
796.967	67.84
797.277	67.83
797.587	67.59
797.896	67.57
798.206	67.75
798.515	67.72
798.825	67.59
799.134	67.7
799.444	67.86
799.753	67.71
800.062	67.72
800.371	67.54
800.681	67.65
800.99	67.9
801.299	67.97
801.608	68.02
801.917	68.05
802.226	68.17
802.535	67.87
802.844	67.46
803.152	67.98
803.461	67.62
803.77	67.87
804.078	68.06
804.387	68.09
804.696	67.91
805.004	67.86
805.313	67.68
805.621	67.38
805.93	67.53
806.238	67.82
806.546	67.45
806.854	67.77
807.163	67.56
807.471	67.14
807.779	67.25
808.087	67.39
808.395	67.49
808.703	67.96
809.011	67.96
809.319	68.23
809.626	68.12
809.934	68.23
810.242	68.37
810.55	68.5
810.857	68.67
811.165	68.41
811.472	68.43
811.78	68.68
812.087	68.1
812.395	68.15
812.702	67.98
813.009	68.36
813.317	68.65
813.624	68.26
813.931	67.94
814.238	67.83
814.545	67.93
814.852	67.55
815.159	67.42
815.466	67.67
815.773	67.99
816.08	68.19
816.387	68.1
816.693	67.82
817	68.12
817.307	68.54
817.613	68.46
817.92	68.37
818.226	68.46
818.533	68.42
818.839	68.78
819.146	68.69
819.452	68.71
819.758	68.19
820.064	68.39
820.371	68.34
820.677	68.25
820.983	68.62
821.289	68.86
821.595	69.53
821.901	69.85
822.207	69.63
822.512	69.4
822.818	69.44
823.124	70.02
823.43	69.91
823.735	70.24
824.041	69.75
824.347	70.1
824.652	69.63
824.957	69.42
825.263	68.78
825.568	68.59
825.874	68.4
826.179	68.2
826.484	68.26
826.789	67.94
827.094	67.63
827.399	67.84
827.705	67.18
828.01	67.94
828.314	67.74
828.619	67.75
828.924	67.91
829.229	68.08
829.534	67.99
829.838	67.79
830.143	68.06
830.448	67.96
830.752	68.01
831.057	68.34
831.361	67.91
831.666	68.34
831.97	68.82
832.274	68.74
832.579	68.93
832.883	68.81
833.187	68.51
833.491	68.18
833.795	68.07
834.099	67.85
834.403	67.48
834.707	67.43
835.011	66.94
835.315	66.71
835.619	67.2
835.923	66.93
836.226	67.06
836.53	67.8
836.834	68.51
837.137	68.4
837.441	68.69
837.744	69.13
838.048	69.36
838.351	69.79
838.654	69.53
838.958	68.91
839.261	68.59
839.564	69.09
839.867	68.8
840.17	68.17
840.473	68.9
840.776	68.97
841.079	68.01
841.382	67.7
841.685	67.29
841.988	67.25
842.291	67.77
842.593	67.63
842.896	67.31
843.199	67.48
843.501	67.04
843.804	66.5
844.106	66.9
844.409	67.6
844.711	67.54
845.013	67.98
845.316	68.02
845.618	67.41
845.92	68.33
846.222	68.36
846.524	67.76
846.826	69.22
847.128	68.77
847.43	68.31
847.732	68.38
848.034	68.6
848.336	68.02
848.638	68.24
848.939	68.65
849.241	68.16
849.543	67.07
849.844	67.39
850.146	66.46
850.447	66.7
850.749	67.26
851.05	68.06
851.351	68.78
851.653	68.27
851.954	68.63
852.255	68.68
852.556	68.77
852.857	69.42
853.158	68.94
853.459	69.13
853.76	68.92
854.061	68.97
854.362	68.1
854.663	66.75
854.964	66.42
855.264	66.51
855.565	66.77
855.866	66.06
856.166	66.76
856.467	66.57
856.767	65.81
857.068	65.94
857.368	65.27
857.668	65.83
857.969	66.75
858.269	67.3
858.569	66.78
858.869	65.79
859.169	66.47
859.469	65.54
859.769	65.69
860.069	66.51
860.369	66.84
860.669	67.65
860.969	66.68
861.269	65.5
861.568	65.06
861.868	65.77
862.168	66.88
862.467	67.33
862.767	67.73
863.066	68.45
863.366	68.4
863.665	67.75
863.964	67.35
864.264	67.4
864.563	68.26
864.862	68.59
865.161	67.35
865.46	67.05
865.759	66.5
866.058	67.78
866.357	67.98
866.656	67.8
866.955	68.3
867.254	67.07
867.552	67.61
867.851	67.53
868.15	67.23
868.448	68.67
868.747	68
869.045	68.61
869.344	67.27
869.642	66.13
869.941	65.89
870.239	66.17
870.537	67.89
870.836	66.56
871.134	67.1
871.432	67.17
871.73	66.48
872.028	66.9
872.326	66.82
872.624	67.01
872.922	68.68
873.22	68.52
873.517	68.22
873.815	66.75
874.113	67.79
874.411	66.75
874.708	66.85
875.006	66.61
875.303	64.88
875.601	65.35
875.898	64.9
876.195	63.88
876.493	64.49
876.79	64.41
877.087	63.71
877.384	63.46
877.682	63.92
877.979	63.66
878.276	63.22
878.573	65.16
878.87	63.61
879.166	64
879.463	63.02
