Data from B.p.hirsuta_ven_HW_orange_right_4_Reflection__0__16.txt Node

Date: Tue Dec 13 09:48:07 EST 2022
User: abbyrobinson
Spectrometer: USB2G8287
Scans to average: 10
Trigger mode: 4
Integration Time (sec): 1.000000E-1
Electric dark correction enabled: true
Boxcar width: 5
XAxis mode: Wavelengths
Number of Pixels in Spectrum: 2048
>>>>>Begin Spectral Data<<<<<
177.272	3.57
177.658	1.12
178.044	-95.87
178.43	228.57
178.816	-1100
179.203	-264.29
179.589	256.16
179.975	48.62
180.361	103.31
180.747	210.29
181.133	367.39
181.519	-63.82
181.904	1.12
182.29	284.62
182.676	73.1
183.062	610
183.447	-2900
183.833	-18.35
184.219	-8.51
184.604	-7.74
184.99	-2.52
185.375	-9.49
185.761	-14.42
186.146	-10.28
186.531	16.02
186.917	2.18
187.302	0.6
187.687	6.21
188.073	16.01
188.458	14.12
188.843	9.77
189.228	13.31
189.613	17.17
189.998	20.99
190.383	22.62
190.768	19.56
191.153	22.51
191.538	22.5
191.923	18.24
192.307	21.05
192.692	25.35
193.077	27.85
193.461	28.68
193.846	27.7
194.231	22.52
194.615	21.53
195	23.18
195.384	25.89
195.769	25.51
196.153	27.04
196.537	22.99
196.922	18.62
197.306	19.96
197.69	14.12
198.074	14.43
198.458	14.31
198.843	12.57
199.227	8.51
199.611	11.44
199.995	15.41
200.379	15.72
200.763	15.5
201.146	16.11
201.53	17.87
201.914	24.71
202.298	21.57
202.681	19.15
203.065	13.43
203.449	15.46
203.832	8.77
204.216	7.79
204.599	11.46
204.983	16.79
205.366	20.68
205.75	15.14
206.133	13.97
206.516	23.35
206.9	32.59
207.283	37.1
207.666	31.56
208.049	25.15
208.432	24.17
208.815	18.32
209.198	7.77
209.581	4.15
209.964	12.46
210.347	13.03
210.73	7.77
211.113	2.05
211.496	3.91
211.879	3.54
212.261	4.3
212.644	-0.19
213.027	4.28
213.409	10.99
213.792	10.33
214.174	8.14
214.557	7.4
214.939	8.16
215.322	8.59
215.704	13.31
216.086	19.13
216.469	22.75
216.851	23.9
217.233	24.94
217.615	23.87
217.997	23.43
218.379	21.93
218.761	23.17
219.143	25.62
219.525	32.21
219.907	23.45
220.289	21.56
220.671	20.9
221.053	20.17
221.435	18.79
221.816	21.84
222.198	17.73
222.58	16.61
222.961	17.28
223.343	18.05
223.724	14.6
224.106	16.18
224.487	15.17
224.869	14.33
225.25	17.36
225.631	17.96
226.013	13.05
226.394	14.95
226.775	14.89
227.156	13.52
227.537	12.52
227.919	12.52
228.3	13.27
228.681	13.33
229.062	13.16
229.442	9.06
229.823	6.23
230.204	9.08
230.585	10.3
230.966	11.4
231.347	10.54
231.727	8.25
232.108	7.09
232.488	6.36
232.869	5.91
233.25	5.81
233.63	7.3
234.01	8.77
234.391	7.4
234.771	6.82
235.152	7.51
235.532	7.63
235.912	7.98
236.292	8.28
236.672	8.28
237.053	7.95
237.433	8.11
237.813	8.24
238.193	7.79
238.573	7.46
238.953	7.31
239.333	6.35
239.712	6.47
240.092	6.33
240.472	6.44
240.852	6.5
241.231	6.78
241.611	6.88
241.991	6.75
242.37	6.62
242.75	6.63
243.129	6.71
243.509	6.95
243.888	6.93
244.267	6.93
244.647	6.88
245.026	6.75
245.405	6.56
245.784	6.49
246.164	6.4
246.543	6.47
246.922	6.5
247.301	6.35
247.68	6.29
248.059	6.26
248.438	6.31
248.817	6.34
249.195	6.57
249.574	6.65
249.953	6.66
250.332	6.65
250.71	6.63
251.089	6.69
251.468	6.79
251.846	6.83
252.225	6.77
252.603	6.71
252.982	6.63
253.36	6.33
253.738	6.26
254.117	6.18
254.495	6.17
254.873	6.2
255.251	6.29
255.63	6.33
256.008	6.28
256.386	6.29
256.764	6.23
257.142	6.18
257.52	6.3
257.898	6.27
258.276	6.23
258.653	6.22
259.031	6.23
259.409	6.1
259.787	6.04
260.164	6.03
260.542	6.08
260.92	6.09
261.297	6.12
261.675	6.14
262.052	6.24
262.43	6.31
262.807	6.3
263.184	6.31
263.562	6.33
263.939	6.29
264.316	6.34
264.693	6.23
265.07	6.22
265.448	6.28
265.825	6.25
266.202	6.23
266.579	6.25
266.956	6.28
267.333	6.25
267.709	6.21
268.086	6.3
268.463	6.19
268.84	6.24
269.216	6.24
269.593	6.22
269.97	6.28
270.346	6.32
270.723	6.28
271.099	6.29
271.476	6.27
271.852	6.29
272.229	6.33
272.605	6.42
272.981	6.48
273.358	6.56
273.734	6.5
274.11	6.51
274.486	6.48
274.862	6.57
275.238	6.55
275.614	6.58
275.99	6.54
276.366	6.46
276.742	6.44
277.118	6.4
277.494	6.38
277.87	6.48
278.245	6.4
278.621	6.34
278.997	6.32
279.372	6.39
279.748	6.44
280.123	6.54
280.499	6.52
280.874	6.54
281.25	6.55
281.625	6.55
282	6.59
282.376	6.68
282.751	6.67
283.126	6.67
283.501	6.73
283.876	6.77
284.252	6.88
284.627	6.99
285.002	7.08
285.377	7.19
285.751	7.24
286.126	7.16
286.501	7.19
286.876	7.32
287.251	7.42
287.625	7.39
288	7.48
288.375	7.5
288.749	7.51
289.124	7.54
289.498	7.59
289.873	7.71
290.247	7.8
290.622	7.9
290.996	8.01
291.37	7.98
291.745	8.06
292.119	8.01
292.493	7.98
292.867	8
293.241	8.02
293.616	8.03
293.99	8.07
294.364	8.16
294.737	8.19
295.111	8.16
295.485	8.21
295.859	8.27
296.233	8.38
296.607	8.42
296.98	8.56
297.354	8.62
297.728	8.67
298.101	8.75
298.475	8.73
298.848	8.75
299.222	8.84
299.595	8.89
299.968	8.97
300.342	8.98
300.715	9.18
301.088	9.07
301.462	9.06
301.835	9.08
302.208	9.02
302.581	9.05
302.954	9.12
303.327	9.2
303.7	9.21
304.073	9.25
304.446	9.3
304.819	9.19
305.192	9.32
305.564	9.37
305.937	9.46
306.31	9.55
306.682	9.73
307.055	9.74
307.428	9.71
307.8	9.83
308.173	9.89
308.545	9.96
308.917	9.99
309.29	10.02
309.662	10.02
310.034	10.04
310.407	10.07
310.779	10.02
311.151	10.09
311.523	10.14
311.895	10.18
312.267	10.17
312.639	10.14
313.011	10.2
313.383	10.28
313.755	10.45
314.127	10.5
314.498	10.53
314.87	10.66
315.242	10.6
315.614	10.63
315.985	10.69
316.357	10.67
316.728	10.71
317.1	10.74
317.471	10.78
317.843	10.74
318.214	10.78
318.585	10.82
318.957	10.7
319.328	10.7
319.699	10.71
320.07	10.64
320.441	10.7
320.813	10.82
321.184	10.85
321.555	10.78
321.926	10.79
322.297	10.82
322.667	10.93
323.038	11.07
323.409	11.17
323.78	11.23
324.151	11.29
324.521	11.27
324.892	11.13
325.262	11.2
325.633	11.32
326.004	11.39
326.374	11.38
326.744	11.18
327.115	11.13
327.485	11.11
327.855	11.07
328.226	11.09
328.596	11.07
328.966	11.05
329.336	10.98
329.706	10.85
330.076	10.78
330.447	10.76
330.816	10.87
331.186	10.84
331.556	10.84
331.926	10.86
332.296	10.81
332.666	10.84
333.036	10.96
333.405	11
333.775	11.04
334.144	10.99
334.514	10.97
334.884	10.86
335.253	10.86
335.623	10.88
335.992	10.81
336.361	10.74
336.731	10.59
337.1	10.51
337.469	10.4
337.838	10.36
338.208	10.31
338.577	10.31
338.946	10.32
339.315	10.26
339.684	10.15
340.053	10.12
340.422	10.06
340.79	10.12
341.159	10.11
341.528	10.1
341.897	10.08
342.266	10.07
342.634	9.96
343.003	9.87
343.371	9.79
343.74	9.78
344.108	9.72
344.477	9.75
344.845	9.69
345.214	9.62
345.582	9.61
345.95	9.43
346.319	9.32
346.687	9.31
347.055	9.3
347.423	9.28
347.791	9.21
348.159	9.14
348.527	9.04
348.895	9.02
349.263	8.94
349.631	8.86
349.999	8.86
350.367	8.84
350.734	8.81
351.102	8.73
351.47	8.66
351.837	8.61
352.205	8.61
352.573	8.55
352.94	8.5
353.308	8.42
353.675	8.38
354.042	8.38
354.41	8.28
354.777	8.17
355.144	8.06
355.511	7.98
355.879	7.89
356.246	7.8
356.613	7.73
356.98	7.6
357.347	7.48
357.714	7.43
358.081	7.34
358.448	7.31
358.815	7.26
359.181	7.25
359.548	7.2
359.915	7.14
360.282	7.04
360.648	7.1
361.015	7.09
361.381	7.14
361.748	7.03
362.114	6.97
362.481	6.99
362.847	6.95
363.214	6.9
363.58	6.88
363.946	6.9
364.312	6.87
364.678	6.83
365.045	6.69
365.411	6.57
365.777	6.54
366.143	6.53
366.509	6.39
366.875	6.34
367.241	6.34
367.606	6.24
367.972	6.22
368.338	6.26
368.704	6.19
369.069	6.26
369.435	6.21
369.801	6.16
370.166	6.08
370.532	6.11
370.897	6.12
371.263	5.99
371.628	6.05
371.993	5.95
372.359	5.89
372.724	5.78
373.089	5.75
373.454	5.67
373.82	5.56
374.185	5.49
374.55	5.45
374.915	5.41
375.28	5.37
375.645	5.3
376.01	5.27
376.374	5.26
376.739	5.22
377.104	5.15
377.469	5.17
377.833	5.21
378.198	5.23
378.563	5.21
378.927	5.18
379.292	5.2
379.656	5.19
380.021	5.17
380.385	5.12
380.749	5.13
381.114	5.09
381.478	5.12
381.842	5.11
382.206	5.09
382.571	5.06
382.935	5.05
383.299	5.02
383.663	4.96
384.027	4.92
384.391	4.82
384.755	4.78
385.118	4.74
385.482	4.69
385.846	4.67
386.21	4.66
386.573	4.68
386.937	4.62
387.301	4.63
387.664	4.58
388.028	4.57
388.391	4.59
388.755	4.54
389.118	4.55
389.481	4.51
389.845	4.56
390.208	4.58
390.571	4.56
390.934	4.51
391.298	4.43
391.661	4.49
392.024	4.43
392.387	4.36
392.75	4.37
393.113	4.36
393.476	4.34
393.838	4.24
394.201	4.15
394.564	4.1
394.927	4.11
395.289	4.12
395.652	4.07
396.015	4.09
396.377	4.18
396.74	4.11
397.102	4.07
397.465	4.18
397.827	4.23
398.189	4.24
398.552	4.21
398.914	4.2
399.276	4.22
399.638	4.21
400	4.2
400.363	4.19
400.725	4.24
401.087	4.2
401.449	4.11
401.81	4.06
402.172	4.06
402.534	4.02
402.896	4.01
403.258	3.96
403.619	3.97
403.981	4.01
404.343	4.02
404.704	3.99
405.066	4.04
405.427	4.06
405.789	4.03
406.15	4.03
406.512	4.07
406.873	4.05
407.234	4.07
407.596	4.09
407.957	4.03
408.318	3.98
408.679	3.99
409.04	4
409.401	3.94
409.762	3.94
410.123	3.92
410.484	3.84
410.845	3.83
411.206	3.8
411.567	3.8
411.927	3.84
412.288	3.81
412.649	4.02
413.009	4
413.37	4.07
413.731	4.03
414.091	4.05
414.452	4.1
414.812	4.06
415.172	4.07
415.533	4.04
415.893	4.04
416.253	4.05
416.613	3.86
416.974	3.86
417.334	3.83
417.694	3.84
418.054	3.9
418.414	3.92
418.774	3.97
419.134	4.02
419.494	4.01
419.853	3.97
420.213	3.95
420.573	3.91
420.933	3.94
421.292	3.94
421.652	3.93
422.011	3.86
422.371	3.84
422.73	3.84
423.09	3.82
423.449	3.86
423.809	3.89
424.168	3.93
424.527	3.93
424.887	3.94
425.246	3.93
425.605	3.95
425.964	3.92
426.323	3.96
426.682	4
427.041	3.98
427.4	3.94
427.759	3.89
428.118	3.92
428.477	3.98
428.835	3.96
429.194	3.97
429.553	4.03
429.911	4.07
430.27	4.08
430.629	4.03
430.987	4.04
431.346	4.07
431.704	4.14
432.062	4.15
432.421	4.14
432.779	4.16
433.137	4.17
433.496	4.13
433.854	4.14
434.212	4.1
434.57	4.12
434.928	4.09
435.286	4.09
435.644	4.05
436.002	4.05
436.36	4.04
436.718	4.03
437.075	4.02
437.433	4.05
437.791	4.08
438.149	4.13
438.506	4.13
438.864	4.19
439.221	4.19
439.579	4.19
439.936	4.19
440.294	4.2
440.651	4.21
441.009	4.23
441.366	4.22
441.723	4.24
442.08	4.25
442.437	4.23
442.795	4.24
443.152	4.22
443.509	4.23
443.866	4.23
444.223	4.21
444.58	4.26
444.936	4.28
445.293	4.33
445.65	4.33
446.007	4.35
446.363	4.4
446.72	4.42
447.077	4.46
447.433	4.48
447.79	4.5
448.146	4.55
448.503	4.51
448.859	4.5
449.215	4.44
449.572	4.39
449.928	4.36
450.284	4.32
450.641	4.31
450.997	4.3
451.353	4.34
451.709	4.33
452.065	4.33
452.421	4.31
452.777	4.35
453.133	4.39
453.488	4.41
453.844	4.46
454.2	4.51
454.556	4.53
454.911	4.54
455.267	4.5
455.623	4.52
455.978	4.53
456.334	4.52
456.689	4.52
457.045	4.57
457.4	4.62
457.755	4.6
458.111	4.64
458.466	4.68
458.821	4.71
459.176	4.77
459.531	4.76
459.886	4.79
460.242	4.86
460.597	4.89
460.951	4.87
461.306	4.89
461.661	4.98
462.016	4.95
462.371	4.96
462.726	4.98
463.08	5.01
463.435	5.08
463.79	5.1
464.144	5.2
464.499	5.23
464.853	5.27
465.208	5.28
465.562	5.26
465.916	5.31
466.271	5.32
466.625	5.34
466.979	5.4
467.333	5.44
467.688	5.4
468.042	5.39
468.396	5.43
468.75	5.46
469.104	5.47
469.458	5.49
469.811	5.47
470.165	5.52
470.519	5.58
470.873	5.52
471.227	5.55
471.58	5.64
471.934	5.64
472.287	5.58
472.641	5.53
472.995	5.6
473.348	5.66
473.701	5.68
474.055	5.7
474.408	5.65
474.761	5.75
475.115	5.73
475.468	5.74
475.821	5.73
476.174	5.79
476.527	5.88
476.88	5.82
477.233	5.85
477.586	5.92
477.939	5.93
478.292	5.98
478.645	5.95
478.998	5.94
479.35	5.91
479.703	5.98
480.056	5.99
480.408	5.97
480.761	6.05
481.113	6.04
481.466	6.03
481.818	6.09
482.171	6.1
482.523	6.14
482.875	6.14
483.228	6.16
483.58	6.12
483.932	6.1
484.284	6.17
484.636	6.19
484.988	6.21
485.34	6.31
485.692	6.31
486.044	6.35
486.396	6.37
486.748	6.45
487.1	6.52
487.451	6.59
487.803	6.66
488.155	6.68
488.506	6.69
488.858	6.74
489.209	6.71
489.561	6.72
489.912	6.77
490.264	6.82
490.615	6.82
490.966	6.83
491.318	6.84
491.669	6.91
492.02	7.01
492.371	7.03
492.722	7.08
493.073	7.18
493.424	7.28
493.775	7.31
494.126	7.39
494.477	7.47
494.828	7.55
495.179	7.62
495.53	7.61
495.88	7.65
496.231	7.8
496.582	7.87
496.932	7.9
497.283	7.92
497.633	7.98
497.984	8.04
498.334	8.08
498.684	8.14
499.035	8.21
499.385	8.28
499.735	8.31
500.086	8.27
500.436	8.32
500.786	8.42
501.136	8.48
501.486	8.55
501.836	8.58
502.186	8.62
502.536	8.69
502.886	8.75
503.235	8.84
503.585	8.87
503.935	9.07
504.285	9.17
504.634	9.25
504.984	9.34
505.333	9.37
505.683	9.43
506.032	9.57
506.382	9.66
506.731	9.67
507.08	9.68
507.43	9.76
507.779	9.75
508.128	9.78
508.477	9.82
508.826	9.87
509.176	10.01
509.525	10.14
509.874	10.2
510.222	10.3
510.571	10.43
510.92	10.58
511.269	10.74
511.618	10.84
511.967	10.94
512.315	11.08
512.664	11.17
513.012	11.24
513.361	11.34
513.71	11.46
514.058	11.58
514.406	11.74
514.755	11.81
515.103	11.89
515.451	11.95
515.8	12.05
516.148	12.12
516.496	12.25
516.844	12.35
517.192	12.43
517.54	12.58
517.888	12.62
518.236	12.69
518.584	12.82
518.932	12.88
519.28	13.03
519.628	13.16
519.975	13.31
520.323	13.43
520.671	13.56
521.018	13.73
521.366	13.73
521.713	13.88
522.061	14.06
522.408	14.23
522.756	14.46
523.103	14.63
523.45	14.83
523.798	14.92
524.145	15.09
524.492	15.28
524.839	15.48
525.186	15.63
525.533	15.73
525.88	15.81
526.227	15.91
526.574	15.99
526.921	16.07
527.268	16.18
527.615	16.36
527.961	16.5
528.308	16.61
528.655	16.66
529.001	16.97
529.348	17.17
529.694	17.42
530.041	17.63
530.387	17.79
530.734	17.95
531.08	18.02
531.426	18.22
531.773	18.35
532.119	18.58
532.465	18.71
532.811	18.68
533.157	18.79
533.503	18.85
533.849	19.02
534.195	19.14
534.541	19.34
534.887	19.61
535.233	19.72
535.579	19.93
535.924	19.97
536.27	20.18
536.616	20.37
536.961	20.54
537.307	20.7
537.652	20.78
537.998	20.95
538.343	21.08
538.689	21.28
539.034	21.43
539.379	21.59
539.725	21.78
540.07	21.99
540.415	22.24
540.76	22.46
541.105	22.71
541.45	23
541.795	23.27
542.14	23.48
542.485	23.54
542.83	23.83
543.175	23.93
543.519	24.15
543.864	24.26
544.209	24.45
544.554	24.59
544.898	24.71
545.243	24.8
545.587	24.88
545.932	25.06
546.276	25.35
546.621	25.49
546.965	25.72
547.309	25.92
547.653	26.18
547.998	26.33
548.342	26.47
548.686	26.71
549.03	26.86
549.374	27.04
549.718	27.29
550.062	27.38
550.406	27.55
550.75	27.68
551.094	27.9
551.437	27.96
551.781	28.06
552.125	28.29
552.468	28.42
552.812	28.69
553.156	28.88
553.499	28.94
553.843	29.22
554.186	29.41
554.529	29.67
554.873	29.84
555.216	30.07
555.559	30.36
555.902	30.58
556.246	30.78
556.589	30.92
556.932	31.08
557.275	31.28
557.618	31.4
557.961	31.55
558.304	31.73
558.646	31.93
558.989	32.12
559.332	32.3
559.675	32.49
560.017	32.69
560.36	32.88
560.703	33.16
561.045	33.35
561.388	33.59
561.73	33.79
562.073	33.99
562.415	34.06
562.757	34.26
563.1	34.47
563.442	34.7
563.784	34.87
564.126	35.06
564.468	35.16
564.81	35.36
565.152	35.47
565.494	35.62
565.836	35.78
566.178	35.9
566.52	36.08
566.862	36.15
567.204	36.28
567.545	36.5
567.887	36.63
568.229	36.81
568.57	37.03
568.912	37.29
569.253	37.54
569.595	37.83
569.936	38.07
570.277	38.16
570.619	38.37
570.96	38.5
571.301	38.58
571.642	38.81
571.984	39.01
572.325	39.12
572.666	39.23
573.007	39.35
573.348	39.4
573.689	39.55
574.03	39.72
574.37	39.86
574.711	40
575.052	40.14
575.393	40.29
575.733	40.42
576.074	40.52
576.414	40.65
576.755	40.75
577.095	40.88
577.436	41.01
577.776	41.14
578.117	41.28
578.457	41.39
578.797	41.52
579.137	41.61
579.478	41.66
579.818	41.8
580.158	41.91
580.498	42.06
580.838	42.18
581.178	42.32
581.518	42.42
581.858	42.51
582.197	42.66
582.537	42.78
582.877	42.87
583.217	43.05
583.556	43.16
583.896	43.27
584.235	43.34
584.575	43.43
584.914	43.54
585.254	43.67
585.593	43.84
585.933	43.92
586.272	44.06
586.611	44.2
586.95	44.25
587.289	44.41
587.629	44.53
587.968	44.71
588.307	44.91
588.646	45.02
588.985	45.14
589.323	45.26
589.662	45.43
590.001	45.54
590.34	45.63
590.679	45.83
591.017	45.98
591.356	46.17
591.695	46.3
592.033	46.45
592.372	46.66
592.71	46.8
593.048	46.97
593.387	47.11
593.725	47.28
594.063	47.47
594.402	47.63
594.74	47.74
595.078	47.85
595.416	47.99
595.754	48.07
596.092	48.19
596.43	48.31
596.768	48.39
597.106	48.56
597.444	48.68
597.781	48.83
598.119	48.91
598.457	49.06
598.795	49.15
599.132	49.26
599.47	49.44
599.807	49.5
600.145	49.64
600.482	49.78
600.82	49.91
601.157	50
601.494	50.14
601.831	50.27
602.169	50.36
602.506	50.5
602.843	50.61
603.18	50.6
603.517	50.69
603.854	50.77
604.191	50.89
604.528	50.97
604.865	51.07
605.202	51.13
605.538	51.23
605.875	51.32
606.212	51.44
606.548	51.54
606.885	51.69
607.222	51.84
607.558	52.01
607.895	52.08
608.231	52.11
608.567	52.17
608.904	52.25
609.24	52.4
609.576	52.54
609.912	52.64
610.248	52.79
610.585	52.86
610.921	52.93
611.257	53.01
611.593	53.13
611.929	53.29
612.264	53.43
612.6	53.59
612.936	53.65
613.272	53.78
613.608	53.85
613.943	53.94
614.279	54.09
614.614	54.23
614.95	54.32
615.285	54.43
615.621	54.55
615.956	54.72
616.292	54.82
616.627	54.9
616.962	54.98
617.297	55.1
617.632	55.08
617.968	55.21
618.303	55.28
618.638	55.31
618.973	55.47
619.308	55.52
619.643	55.62
619.977	55.64
620.312	55.71
620.647	55.78
620.982	55.9
621.316	56.1
621.651	56.18
621.986	56.26
622.32	56.31
622.655	56.33
622.989	56.49
623.324	56.62
623.658	56.72
623.992	56.82
624.326	56.85
624.661	56.91
624.995	56.96
625.329	57.03
625.663	57.11
625.997	57.33
626.331	57.32
626.665	57.35
626.999	57.35
627.333	57.42
627.667	57.55
628.001	57.73
628.334	57.75
628.668	57.81
629.002	57.96
629.335	58.05
629.669	58.01
630.002	58.17
630.336	58.28
630.669	58.35
631.003	58.5
631.336	58.54
631.669	58.61
632.003	58.66
632.336	58.73
632.669	58.8
633.002	58.92
633.335	58.93
633.668	58.98
634.001	59.05
634.334	59.12
634.667	59.07
635	59.02
635.333	59.06
635.665	59.15
635.998	59.34
636.331	59.32
636.663	59.43
636.996	59.64
637.328	59.64
637.661	59.63
637.993	59.7
638.326	59.95
638.658	60.11
638.99	60.15
639.323	60.39
639.655	60.4
639.987	60.46
640.319	60.6
640.651	60.77
640.983	60.84
641.315	61.04
641.647	61
641.979	60.85
642.311	61.11
642.643	61.38
642.975	61.42
643.306	61.29
643.638	61.52
643.97	61.49
644.301	61.45
644.633	61.79
644.964	61.65
645.296	62.08
645.627	62.28
645.959	62.14
646.29	62.17
646.621	62.33
646.952	62.39
647.284	62.2
647.615	62.57
647.946	62.84
648.277	62.4
648.608	62.69
648.939	62.75
649.27	62.62
649.601	62.79
649.931	62.61
650.262	62.31
650.593	62.8
650.924	63.28
651.254	62.91
651.585	62.84
651.915	63.14
652.246	63.37
652.576	63.57
652.907	63.82
653.237	63.86
653.568	64.16
653.898	64.36
654.228	64.23
654.558	63.91
654.888	64.29
655.219	64.14
655.549	64.19
655.879	64.15
656.209	64.17
656.539	64.16
656.868	64.18
657.198	64.36
657.528	64.42
657.858	64.54
658.188	64.59
658.517	64.61
658.847	64.69
659.176	64.74
659.506	64.77
659.835	64.8
660.165	64.89
660.494	64.93
660.824	64.91
661.153	64.97
661.482	64.99
661.811	64.99
662.14	65.06
662.47	65.08
662.799	65.12
663.128	65.21
663.457	65.23
663.786	65.22
664.114	65.39
664.443	65.46
664.772	65.36
665.101	65.22
665.43	65.21
665.758	65.17
666.087	65.24
666.415	65.26
666.744	65.32
667.072	65.65
667.401	65.81
667.729	65.74
668.058	65.86
668.386	66.14
668.714	66.2
669.042	66.89
669.371	66.45
669.699	66.11
670.027	66.17
670.355	65.65
670.683	65.49
671.011	65.33
671.339	65.42
671.666	65.72
671.994	65.88
672.322	66.21
672.65	65.82
672.977	66.43
673.305	66.94
673.633	67
673.96	67.27
674.288	67.37
674.615	67.37
674.943	67.35
675.27	67.53
675.597	67.66
675.924	67.71
676.252	68.04
676.579	67.79
676.906	67.5
677.233	67.52
677.56	67.76
677.887	68.05
678.214	68.23
678.541	68.64
678.868	68.56
679.195	68.68
679.521	68.71
679.848	68.76
680.175	68.69
680.501	68.89
680.828	68.85
681.154	68.57
681.481	68.58
681.807	68.48
682.134	68.25
682.46	68.47
682.787	68.37
683.113	68.47
683.439	68.27
683.765	68.58
684.091	68.48
684.417	68.88
684.743	69.14
685.069	68.88
685.395	69.1
685.721	69.38
686.047	69.27
686.373	69.51
686.699	69.68
687.024	69.78
687.35	69.72
687.676	69.99
688.001	69.62
688.327	69.34
688.652	69.45
688.978	69.27
689.303	69.14
689.629	69.04
689.954	68.9
690.279	69.05
690.604	69.22
690.93	69.33
691.255	69.32
691.58	69.38
691.905	69.55
692.23	69.66
692.555	69.95
692.88	69.95
693.204	70.09
693.529	70.27
693.854	69.9
694.179	69.94
694.503	70
694.828	69.81
695.153	70.15
695.477	70.3
695.802	70.05
696.126	69.85
696.451	69.95
696.775	69.9
697.099	69.95
697.423	70.1
697.748	70.34
698.072	70.18
698.396	70.34
698.72	69.93
699.044	70.01
699.368	70.42
699.692	70.72
700.016	70.77
700.34	71.16
700.664	70.99
700.987	71.26
701.311	70.9
701.635	70.93
701.958	71.01
702.282	71.16
702.606	71.05
702.929	71.1
703.252	70.91
703.576	70.84
703.899	70.44
704.223	70.81
704.546	70.48
704.869	70.59
705.192	70.78
705.515	70.92
705.838	70.99
706.161	71
706.484	70.72
706.807	70.97
707.13	70.92
707.453	71
707.776	70.97
708.099	71.46
708.421	71.83
708.744	71.93
709.067	71.99
709.389	71.99
709.712	72.09
710.034	72.33
710.357	72.29
710.679	72.26
711.001	72.34
711.324	72.27
711.646	72.26
711.968	72.17
712.29	72.32
712.612	72.26
712.935	72.45
713.257	72.36
713.579	72.44
713.9	72.49
714.222	72.94
714.544	72.98
714.866	73.09
715.188	72.81
715.509	72.9
715.831	72.83
716.153	72.84
716.474	72.61
716.796	72.61
717.117	72.47
717.439	72.31
717.76	72.11
718.081	72.2
718.403	72.28
718.724	72.29
719.045	72
719.366	71.96
719.687	71.85
720.009	72.26
720.33	72.28
720.651	72.27
720.971	72.53
721.292	72.34
721.613	72.46
721.934	72.29
722.255	72.71
722.575	72.99
722.896	72.88
723.217	73.02
723.537	72.85
723.858	72.78
724.178	72.97
724.499	73.11
724.819	73.17
725.139	73.14
725.46	73.25
725.78	72.86
726.1	72.52
726.42	72.82
726.74	72.84
727.06	72.69
727.38	73.07
727.7	72.98
728.02	72.94
728.34	73.35
728.66	73.4
728.98	73.23
729.299	73.75
729.619	73.94
729.939	73.71
730.258	73.72
730.578	73.71
730.897	73.55
731.217	73.6
731.536	73.6
731.856	73.52
732.175	73.43
732.494	73.46
732.814	73.09
733.133	73.12
733.452	73.26
733.771	73.6
734.09	73.87
734.409	74.11
734.728	74.03
735.047	74.36
735.366	74.51
735.684	74.51
736.003	74.67
736.322	74.84
736.641	74.76
736.959	74.72
737.278	74.49
737.596	74.39
737.915	74.59
738.233	74.75
738.552	74.64
738.87	74.66
739.188	74.77
739.507	74.58
739.825	74.62
740.143	74.93
740.461	75.12
740.779	75.04
741.097	75.04
741.415	74.85
741.733	74.71
742.051	74.57
742.369	74.32
742.687	74.47
743.004	74.87
743.322	74.79
743.64	74.73
743.957	74.91
744.275	75.17
744.593	75.35
744.91	75.42
745.227	75.98
745.545	76.05
745.862	76.48
746.179	76.41
746.497	76.15
746.814	75.94
747.131	76.08
747.448	75.73
747.765	75.54
748.082	75.46
748.399	75.39
748.716	74.84
749.033	74.66
749.35	73.99
749.667	74.02
749.983	74.31
750.3	74.52
750.617	74.26
750.933	74.15
751.25	74.19
751.566	74.56
751.883	74.69
752.199	74.87
752.516	75
752.832	75.24
753.148	75.29
753.464	74.97
753.781	75.23
754.097	75.32
754.413	75.7
754.729	75.98
755.045	75.73
755.361	75.71
755.677	75.56
755.992	75.98
756.308	75.96
756.624	75.56
756.94	75.91
757.255	75.94
757.571	76.17
757.887	76.11
758.202	75.95
758.518	76.34
758.833	76.44
759.148	76.34
759.464	75.95
759.779	76.1
760.094	76.56
760.41	76.86
760.725	76.8
761.04	76.69
761.355	76.45
761.67	76.52
761.985	76.67
762.3	76.84
762.615	77.03
762.93	77.13
763.244	77.19
763.559	77.03
763.874	76.5
764.188	76.64
764.503	76.78
764.818	76.96
765.132	76.92
765.447	76.42
765.761	75.81
766.075	75.93
766.39	76.13
766.704	75.95
767.018	76.07
767.332	76.36
767.646	76.14
767.961	76.2
768.275	76.26
768.589	76.15
768.903	76.76
769.216	77.47
769.53	77.45
769.844	77.23
770.158	77.78
770.472	77.99
770.785	78.19
771.099	78.23
771.413	77.87
771.726	77.93
772.04	78.07
772.353	77.61
772.666	77.6
772.98	77.85
773.293	77.83
773.606	77.36
773.919	77.39
774.233	77.28
774.546	77.66
774.859	77.74
775.172	77.91
775.485	78.12
775.798	78.25
776.111	78.11
776.423	78.06
776.736	78.42
777.049	78.43
777.362	78.18
777.674	78.17
777.987	77.59
778.299	78.17
778.612	77.68
778.924	77.48
779.237	77.32
779.549	77.52
779.862	77.68
780.174	77.43
780.486	77.93
780.798	78.38
781.11	78.51
781.422	78.49
781.735	78.13
782.046	78.13
782.358	78.94
782.67	78.91
782.982	78.52
783.294	77.88
783.606	78.03
783.917	77.71
784.229	78.09
784.541	77.96
784.852	78.06
785.164	78.2
785.475	78.24
785.787	77.47
786.098	77.34
786.41	77.51
786.721	77.95
787.032	77.31
787.343	77.34
787.654	76.59
787.966	77.13
788.277	77.4
788.588	77.84
788.899	78.34
789.209	78.5
789.52	78.52
789.831	78.62
790.142	78.35
790.453	79.02
790.763	79.7
791.074	79.62
791.385	78.69
791.695	78.36
792.006	78.03
792.316	77.82
792.626	78.11
792.937	78.23
793.247	77.81
793.557	77.88
793.868	77.55
794.178	77.1
794.488	76.83
794.798	76.63
795.108	76.84
795.418	76.36
795.728	75.85
796.038	75.4
796.348	75.72
796.657	76.08
796.967	76.15
797.277	76.65
797.587	76.55
797.896	76.92
798.206	77.11
798.515	77.03
798.825	77.24
799.134	77.67
799.444	78.03
799.753	77.73
800.062	77.61
800.371	77.3
800.681	77.05
800.99	77.5
801.299	77.55
801.608	78
801.917	77.69
802.226	77.55
802.535	77.22
802.844	76.86
803.152	77.35
803.461	78.4
803.77	78.92
804.078	78.14
804.387	76.99
804.696	76.83
805.004	76.34
805.313	76.91
805.621	76.56
805.93	77.37
806.238	78.14
806.546	77.28
806.854	76.21
807.163	76.34
807.471	78.18
807.779	78.58
808.087	78.67
808.395	78.61
808.703	79.1
809.011	79.25
809.319	79
809.626	78
809.934	78.59
810.242	78.32
810.55	78.52
810.857	78.67
811.165	79
811.472	78.58
811.78	79.41
812.087	79.17
812.395	79.19
812.702	78.08
813.009	78.74
813.317	78.46
813.624	79.04
813.931	79.57
814.238	79.04
814.545	78.67
814.852	79.64
815.159	79.04
815.466	80.35
815.773	81.26
816.08	83.68
816.387	85.24
816.693	86.16
817	84.43
817.307	84.53
817.613	84.65
817.92	85.31
818.226	86.04
818.533	86.58
818.839	85.4
819.146	86.11
819.452	84.42
819.758	82.9
820.064	82.51
820.371	85.27
820.677	83.7
820.983	81.36
821.289	80.49
821.595	79.36
821.901	78.13
822.207	78.71
822.512	78.23
822.818	78.73
823.124	78.28
823.43	79
823.735	79.03
824.041	80.04
824.347	81.52
824.652	82.65
824.957	83.7
825.263	84.77
825.568	84.39
825.874	84.38
826.179	86.52
826.484	88.08
826.789	86.96
827.094	87
827.399	86.88
827.705	87.75
828.01	88.48
828.314	88.45
828.619	86.67
828.924	86.85
829.229	86.05
829.534	83.67
829.838	83.69
830.143	83.68
830.448	82.14
830.752	82.75
831.057	82.55
831.361	82.12
831.666	82.98
831.97	86.16
832.274	84.77
832.579	85.03
832.883	86.36
833.187	86.05
833.491	86.84
833.795	87.74
834.099	87.16
834.403	87.67
834.707	87.23
835.011	87.23
835.315	85.39
835.619	88.02
835.923	89.14
836.226	87.62
836.53	87.76
836.834	87.48
837.137	88.2
837.441	87.36
837.744	87.56
838.048	87.69
838.351	85.2
838.654	84.71
838.958	82.81
839.261	82.15
839.564	80.9
839.867	79.18
840.17	79.65
840.473	78.95
840.776	80.42
841.079	79.31
841.382	80.19
841.685	80.8
841.988	81.04
842.291	81.89
842.593	81.01
842.896	84.06
843.199	86.94
843.501	84.11
843.804	84.51
844.106	85.97
844.409	83.42
844.711	78.94
845.013	76.47
845.316	76.56
845.618	74.62
845.92	77.87
846.222	76.84
846.524	70.4
846.826	71.4
847.128	68.98
847.43	62.14
847.732	63.87
848.034	69.43
848.336	71.78
848.638	73.74
848.939	80.49
849.241	77.28
849.543	75.73
849.844	81.94
850.146	79.01
850.447	81.38
850.749	83.43
851.05	87
851.351	83.22
851.653	84.98
851.954	87.37
852.255	84.51
852.556	84.41
852.857	89.9
853.158	91.17
853.459	97.33
853.76	90.7
854.061	102.69
854.362	98.1
854.663	99.4
854.964	98.41
855.264	90.88
855.565	86.88
855.866	85.93
856.166	87.72
856.467	84.12
856.767	84.17
857.068	88.63
857.368	82.83
857.668	82.36
857.969	81.3
858.269	79.26
858.569	79.2
858.869	81.38
859.169	81.02
859.469	79.02
859.769	82.12
860.069	81.18
860.369	78.62
860.669	78.73
860.969	78.8
861.269	80.04
861.568	80.95
861.868	80.36
862.168	79.07
862.467	80.15
862.767	79.67
863.066	75.97
863.366	78.4
863.665	77.01
863.964	79.75
864.264	79.57
864.563	74.29
864.862	78.49
865.161	83.4
865.46	82.63
865.759	80.79
866.058	81.61
866.357	88.63
866.656	81.56
866.955	84.27
867.254	83.56
867.552	79.51
867.851	80.73
868.15	77.25
868.448	80.12
868.747	79.93
869.045	86.61
869.344	84.07
869.642	71.79
869.941	74
870.239	74.79
870.537	74.36
870.836	83.53
871.134	86.88
871.432	83.02
871.73	78.2
872.028	77.74
872.326	73.96
872.624	74.75
872.922	79.15
873.22	85.95
873.517	88.04
873.815	86.59
874.113	84.22
874.411	84.05
874.708	86.08
875.006	81.25
875.303	83.74
875.601	80.78
875.898	80.67
876.195	83.82
876.493	77.04
876.79	78.68
877.087	79.93
877.384	80.91
877.682	81.69
877.979	85.58
878.276	88.06
878.573	88.5
878.87	93.93
879.166	95.01
879.463	94.25
