Data from battus_ven_HW_orange_right_7_Reflection__0__137.txt Node

Date: Mon Dec 12 12:08:05 EST 2022
User: abbyrobinson
Spectrometer: USB2G8287
Scans to average: 10
Trigger mode: 4
Integration Time (sec): 1.000000E-1
Electric dark correction enabled: true
Boxcar width: 5
XAxis mode: Wavelengths
Number of Pixels in Spectrum: 2048
>>>>>Begin Spectral Data<<<<<
177.272	95.89
177.658	99.08
178.044	93.93
178.43	87.21
178.816	93.37
179.203	88.47
179.589	108.44
179.975	118.24
180.361	100.5
180.747	92.18
181.133	83.11
181.519	91.16
181.904	99.08
182.29	99.76
182.676	100.55
183.062	107.77
183.447	108.43
183.833	116.52
184.219	80.39
184.604	89.76
184.99	107.39
185.375	167.75
185.761	210.88
186.146	-1476.47
186.531	-67.49
186.917	-60.31
187.302	9.99
187.687	8.67
188.073	-8.68
188.458	-29.38
188.843	-24.41
189.228	-35.08
189.613	-70.17
189.998	-55.76
190.383	-68.54
190.768	-90.84
191.153	-73.41
191.538	-77.2
191.923	-49.71
192.307	-50.5
192.692	-41.3
193.077	-58.34
193.461	-54.41
193.846	-35.86
194.231	-31.03
194.615	-23.29
195	-4.74
195.384	-18.6
195.769	-18.68
196.153	-37.51
196.537	-29.73
196.922	-27.75
197.306	-7.59
197.69	-4.57
198.074	-7.88
198.458	-13.92
198.843	-21.18
199.227	-30.04
199.611	-27.93
199.995	-30.88
200.379	-44.77
200.763	-56.24
201.146	-49.69
201.53	-64.94
201.914	-70.56
202.298	-66.63
202.681	-56.2
203.065	-37.37
203.449	-41.22
203.832	-29.99
204.216	-44.26
204.599	62.17
204.983	68.19
205.366	65.54
205.75	67.02
206.133	64.11
206.516	65.31
206.9	64.89
207.283	59.75
207.666	56.64
208.049	56.08
208.432	57.98
208.815	-26.28
209.198	-56.87
209.581	-50.48
209.964	-45.15
210.347	-45.19
210.73	-44.45
211.113	-47.62
211.496	-33.55
211.879	-23.19
212.261	-32.32
212.644	-33.05
213.027	-27.1
213.409	-13.44
213.792	-24.95
214.174	-26.7
214.557	-13.19
214.939	-15.92
215.322	-16.36
215.704	-23.56
216.086	-25.76
216.469	-23.47
216.851	-26.54
217.233	-42.13
217.615	-50.31
217.997	-36
218.379	-36.36
218.761	-39.85
219.143	-30.26
219.525	-37.65
219.907	-29.11
220.289	-21.8
220.671	-21.39
221.053	-14.39
221.435	-11.18
221.816	-15.73
222.198	-20.24
222.58	-19.84
222.961	-20.72
223.343	-29.52
223.724	-17.29
224.106	-22.29
224.487	-31.18
224.869	-26.92
225.25	-36.14
225.631	-35.23
226.013	-22.01
226.394	-16.51
226.775	-15.44
227.156	-17.55
227.537	-16.08
227.919	-21.94
228.3	-18.74
228.681	-13.75
229.062	-14.74
229.442	-14.4
229.823	-11.46
230.204	-12.96
230.585	-13.55
230.966	-14.21
231.347	-12.07
231.727	-11.08
232.108	-9.22
232.488	-7.08
232.869	-6.39
233.25	-5.23
233.63	-2.83
234.01	-3.91
234.391	-4.37
234.771	-3.15
235.152	-1.37
235.532	-1.38
235.912	0.64
236.292	0.82
236.672	0.99
237.053	1.83
237.433	1.86
237.813	1.86
238.193	2.49
238.573	2.92
238.953	3.05
239.333	2.87
239.712	3.13
240.092	2.67
240.472	2.89
240.852	3.1
241.231	3.49
241.611	3.91
241.991	4.37
242.37	4.75
242.75	5.3
243.129	5.66
243.509	6.36
243.888	6.94
244.267	7.12
244.647	7.33
245.026	7.3
245.405	7.29
245.784	7.3
246.164	7.06
246.543	7.14
246.922	6.93
247.301	7.13
247.68	6.9
248.059	7.02
248.438	7.24
248.817	7.16
249.195	7.26
249.574	7.37
249.953	7.53
250.332	7.71
250.71	7.82
251.089	8.19
251.468	8.23
251.846	8.26
252.225	8.09
252.603	8.12
252.982	8.25
253.36	8.24
253.738	8.36
254.117	8.44
254.495	8.47
254.873	8.51
255.251	8.48
255.63	8.47
256.008	8.52
256.386	8.55
256.764	8.46
257.142	8.5
257.52	8.54
257.898	8.45
258.276	8.41
258.653	8.38
259.031	8.38
259.409	8.33
259.787	8.39
260.164	8.45
260.542	8.53
260.92	8.63
261.297	8.64
261.675	8.67
262.052	8.71
262.43	8.71
262.807	8.75
263.184	8.76
263.562	8.79
263.939	8.83
264.316	8.82
264.693	8.74
265.07	8.71
265.448	8.69
265.825	8.65
266.202	8.61
266.579	8.68
266.956	8.83
267.333	8.8
267.709	8.77
268.086	8.57
268.463	8.57
268.84	8.66
269.216	8.7
269.593	8.66
269.97	8.66
270.346	8.72
270.723	8.66
271.099	8.56
271.476	8.56
271.852	8.58
272.229	8.69
272.605	8.78
272.981	8.79
273.358	8.78
273.734	8.8
274.11	8.79
274.486	8.81
274.862	8.95
275.238	8.9
275.614	8.85
275.99	8.81
276.366	8.82
276.742	8.67
277.118	8.62
277.494	8.67
277.87	8.73
278.245	8.89
278.621	8.85
278.997	8.8
279.372	8.82
279.748	8.83
280.123	8.89
280.499	8.85
280.874	8.86
281.25	8.87
281.625	8.8
282	8.76
282.376	8.7
282.751	8.66
283.126	8.59
283.501	8.61
283.876	8.62
284.252	8.59
284.627	8.58
285.002	8.61
285.377	8.59
285.751	8.6
286.126	8.64
286.501	8.59
286.876	8.62
287.251	8.59
287.625	8.61
288	8.54
288.375	8.48
288.749	8.45
289.124	8.46
289.498	8.45
289.873	8.41
290.247	8.35
290.622	8.29
290.996	8.26
291.37	8.24
291.745	8.13
292.119	8.18
292.493	8.26
292.867	8.3
293.241	8.34
293.616	8.32
293.99	8.31
294.364	8.27
294.737	8.3
295.111	8.24
295.485	8.27
295.859	8.34
296.233	8.25
296.607	8.17
296.98	8.21
297.354	8.21
297.728	8.26
298.101	8.3
298.475	8.29
298.848	8.3
299.222	8.34
299.595	8.32
299.968	8.27
300.342	8.33
300.715	8.34
301.088	8.21
301.462	7.97
301.835	7.83
302.208	7.69
302.581	7.77
302.954	7.76
303.327	7.75
303.7	7.7
304.073	7.7
304.446	7.65
304.819	7.66
305.192	7.64
305.564	7.79
305.937	7.85
306.31	7.88
306.682	7.81
307.055	7.81
307.428	7.77
307.8	7.71
308.173	7.67
308.545	7.7
308.917	7.62
309.29	7.51
309.662	7.38
310.034	7.37
310.407	7.3
310.779	7.14
311.151	7.12
311.523	7.14
311.895	7.26
312.267	7.32
312.639	7.23
313.011	7.18
313.383	7.28
313.755	7.28
314.127	7.2
314.498	7.16
314.87	7.13
315.242	7.06
315.614	6.96
315.985	6.81
316.357	6.65
316.728	6.6
317.1	6.58
317.471	6.53
317.843	6.55
318.214	6.47
318.585	6.47
318.957	6.52
319.328	6.5
319.699	6.4
320.07	6.36
320.441	6.33
320.813	6.33
321.184	6.3
321.555	6.23
321.926	6.23
322.297	6.3
322.667	6.26
323.038	6.25
323.409	6.27
323.78	6.25
324.151	6.22
324.521	6.2
324.892	6.18
325.262	6.13
325.633	6.12
326.004	6.08
326.374	6.05
326.744	6
327.115	5.9
327.485	5.77
327.855	5.75
328.226	5.7
328.596	5.65
328.966	5.62
329.336	5.59
329.706	5.56
330.076	5.4
330.447	5.29
330.816	5.23
331.186	5.2
331.556	5.17
331.926	5.17
332.296	5.17
332.666	5.18
333.036	5.11
333.405	5.09
333.775	5.01
334.144	5.02
334.514	4.95
334.884	4.88
335.253	4.81
335.623	4.78
335.992	4.75
336.361	4.72
336.731	4.67
337.1	4.57
337.469	4.46
337.838	4.36
338.208	4.35
338.577	4.33
338.946	4.3
339.315	4.35
339.684	4.26
340.053	4.23
340.422	4.15
340.79	4.01
341.159	3.97
341.528	3.93
341.897	3.94
342.266	3.87
342.634	3.86
343.003	3.91
343.371	3.76
343.74	3.73
344.108	3.68
344.477	3.56
344.845	3.64
345.214	3.6
345.582	3.62
345.95	3.55
346.319	3.48
346.687	3.38
347.055	3.35
347.423	3.34
347.791	3.3
348.159	3.26
348.527	3.37
348.895	3.26
349.263	3.32
349.631	3.31
349.999	3.29
350.367	3.3
350.734	3.29
351.102	3.24
351.47	3.28
351.837	3.24
352.205	3.25
352.573	3.1
352.94	3.09
353.308	3.02
353.675	2.97
354.042	3.03
354.41	3
354.777	2.95
355.144	2.85
355.511	2.83
355.879	2.85
356.246	2.78
356.613	2.8
356.98	2.75
357.347	2.8
357.714	2.69
358.081	2.64
358.448	2.6
358.815	2.63
359.181	2.66
359.548	2.62
359.915	2.53
360.282	2.53
360.648	2.47
361.015	2.43
361.381	2.44
361.748	2.52
362.114	2.46
362.481	2.49
362.847	2.42
363.214	2.46
363.58	2.42
363.946	2.51
364.312	2.39
364.678	2.4
365.045	2.51
365.411	2.46
365.777	2.39
366.143	2.43
366.509	2.33
366.875	2.34
367.241	2.29
367.606	2.33
367.972	2.25
368.338	2.28
368.704	2.29
369.069	2.23
369.435	2.22
369.801	2.17
370.166	2.18
370.532	2.25
370.897	2.27
371.263	2.23
371.628	2.23
371.993	2.22
372.359	2.25
372.724	2.19
373.089	2.11
373.454	2.03
373.82	2.06
374.185	1.96
374.55	1.91
374.915	1.9
375.28	1.85
375.645	1.78
376.01	1.8
376.374	1.84
376.739	1.85
377.104	1.9
377.469	1.96
377.833	1.99
378.198	2.06
378.563	2.14
378.927	2.07
379.292	2.13
379.656	2.17
380.021	2.09
380.385	2.01
380.749	2.04
381.114	2.02
381.478	1.99
381.842	1.98
382.206	1.97
382.571	1.93
382.935	1.9
383.299	1.85
383.663	1.79
384.027	1.82
384.391	1.84
384.755	1.82
385.118	1.83
385.482	1.79
385.846	1.8
386.21	1.76
386.573	1.72
386.937	1.75
387.301	1.8
387.664	1.8
388.028	1.83
388.391	1.8
388.755	1.73
389.118	1.64
389.481	1.67
389.845	1.64
390.208	1.61
390.571	1.61
390.934	1.65
391.298	1.63
391.661	1.66
392.024	1.64
392.387	1.71
392.75	1.73
393.113	1.78
393.476	1.81
393.838	1.84
394.201	1.83
394.564	1.86
394.927	1.8
395.289	1.77
395.652	1.76
396.015	1.75
396.377	1.69
396.74	1.75
397.102	1.8
397.465	1.75
397.827	1.74
398.189	1.72
398.552	1.7
398.914	1.68
399.276	1.71
399.638	1.73
400	1.75
400.363	1.77
400.725	1.72
401.087	1.62
401.449	1.7
401.81	1.67
402.172	1.81
402.534	1.84
402.896	1.94
403.258	1.98
403.619	2
403.981	1.99
404.343	1.99
404.704	1.99
405.066	1.99
405.427	1.91
405.789	1.91
406.15	1.83
406.512	1.72
406.873	1.69
407.234	1.64
407.596	1.59
407.957	1.56
408.318	1.55
408.679	1.55
409.04	1.66
409.401	1.7
409.762	1.64
410.123	1.62
410.484	1.71
410.845	1.68
411.206	1.69
411.567	1.68
411.927	1.71
412.288	1.73
412.649	2.25
413.009	2.27
413.37	2.25
413.731	2.28
414.091	2.25
414.452	2.23
414.812	2.23
415.172	2.23
415.533	2.27
415.893	2.26
416.253	2.21
416.613	1.71
416.974	1.7
417.334	1.66
417.694	1.69
418.054	1.68
418.414	1.63
418.774	1.63
419.134	1.63
419.494	1.61
419.853	1.59
420.213	1.61
420.573	1.63
420.933	1.58
421.292	1.65
421.652	1.62
422.011	1.69
422.371	1.71
422.73	1.76
423.09	1.75
423.449	1.7
423.809	1.73
424.168	1.71
424.527	1.69
424.887	1.7
425.246	1.64
425.605	1.66
425.964	1.62
426.323	1.64
426.682	1.56
427.041	1.59
427.4	1.62
427.759	1.62
428.118	1.61
428.477	1.66
428.835	1.65
429.194	1.66
429.553	1.68
429.911	1.7
430.27	1.7
430.629	1.77
430.987	1.74
431.346	1.72
431.704	1.69
432.062	1.72
432.421	1.67
432.779	1.73
433.137	1.74
433.496	1.75
433.854	1.79
434.212	1.79
434.57	1.8
434.928	1.81
435.286	1.86
435.644	1.87
436.002	1.88
436.36	1.87
436.718	1.76
437.075	1.79
437.433	1.76
437.791	1.7
438.149	1.71
438.506	1.64
438.864	1.64
439.221	1.61
439.579	1.63
439.936	1.62
440.294	1.65
440.651	1.68
441.009	1.63
441.366	1.63
441.723	1.65
442.08	1.67
442.437	1.68
442.795	1.68
443.152	1.73
443.509	1.72
443.866	1.73
444.223	1.72
444.58	1.75
444.936	1.8
445.293	1.81
445.65	1.86
446.007	1.85
446.363	1.89
446.72	1.91
447.077	1.89
447.433	1.85
447.79	1.89
448.146	1.89
448.503	1.91
448.859	1.89
449.215	1.93
449.572	1.93
449.928	1.95
450.284	1.95
450.641	1.92
450.997	1.96
451.353	1.98
451.709	1.98
452.065	2
452.421	1.97
452.777	1.97
453.133	1.96
453.488	1.89
453.844	1.96
454.2	1.95
454.556	1.99
454.911	2.02
455.267	2.05
455.623	2.03
455.978	2.03
456.334	2.08
456.689	2.11
457.045	2.08
457.4	2.13
457.755	2.01
458.111	2.04
458.466	2.04
458.821	2
459.176	1.94
459.531	1.99
459.886	1.96
460.242	1.94
460.597	1.93
460.951	1.96
461.306	1.99
461.661	2.07
462.016	2.07
462.371	2.1
462.726	2.15
463.08	2.25
463.435	2.18
463.79	2.21
464.144	2.22
464.499	2.26
464.853	2.28
465.208	2.27
465.562	2.32
465.916	2.32
466.271	2.27
466.625	2.25
466.979	2.21
467.333	2.26
467.688	2.3
468.042	2.29
468.396	2.25
468.75	2.2
469.104	2.22
469.458	2.18
469.811	2.19
470.165	2.26
470.519	2.29
470.873	2.29
471.227	2.3
471.58	2.32
471.934	2.35
472.287	2.34
472.641	2.34
472.995	2.34
473.348	2.34
473.701	2.34
474.055	2.3
474.408	2.29
474.761	2.28
475.115	2.28
475.468	2.28
475.821	2.34
476.174	2.41
476.527	2.47
476.88	2.48
477.233	2.5
477.586	2.51
477.939	2.55
478.292	2.52
478.645	2.52
478.998	2.51
479.35	2.5
479.703	2.44
480.056	2.45
480.408	2.43
480.761	2.43
481.113	2.44
481.466	2.49
481.818	2.46
482.171	2.5
482.523	2.58
482.875	2.67
483.228	2.73
483.58	2.76
483.932	2.76
484.284	2.79
484.636	2.82
484.988	2.84
485.34	2.89
485.692	2.92
486.044	2.93
486.396	2.95
486.748	2.93
487.1	2.95
487.451	2.98
487.803	2.99
488.155	3.01
488.506	3.04
488.858	3.05
489.209	3
489.561	3.02
489.912	3.05
490.264	3.08
490.615	3.08
490.966	3.11
491.318	3.13
491.669	3.13
492.02	3.14
492.371	3.12
492.722	3.13
493.073	3.18
493.424	3.22
493.775	3.17
494.126	3.16
494.477	3.19
494.828	3.16
495.179	3.17
495.53	3.22
495.88	3.24
496.231	3.27
496.582	3.3
496.932	3.32
497.283	3.29
497.633	3.33
497.984	3.4
498.334	3.41
498.684	3.37
499.035	3.37
499.385	3.38
499.735	3.41
500.086	3.45
500.436	3.47
500.786	3.49
501.136	3.54
501.486	3.6
501.836	3.62
502.186	3.65
502.536	3.72
502.886	3.78
503.235	3.8
503.585	3.89
503.935	3.85
504.285	3.87
504.634	3.95
504.984	3.98
505.333	3.99
505.683	3.99
506.032	3.99
506.382	4.01
506.731	3.99
507.08	4.03
507.43	3.99
507.779	4.11
508.128	4.11
508.477	4.07
508.826	4.12
509.176	4.14
509.525	4.14
509.874	4.16
510.222	4.23
510.571	4.28
510.92	4.3
511.269	4.34
511.618	4.34
511.967	4.37
512.315	4.47
512.664	4.46
513.012	4.5
513.361	4.56
513.71	4.62
514.058	4.7
514.406	4.73
514.755	4.73
515.103	4.77
515.451	4.8
515.8	4.85
516.148	4.83
516.496	4.9
516.844	4.98
517.192	5.02
517.54	5.03
517.888	5.03
518.236	5.08
518.584	5.18
518.932	5.18
519.28	5.24
519.628	5.3
519.975	5.35
520.323	5.41
520.671	5.42
521.018	5.44
521.366	5.5
521.713	5.51
522.061	5.56
522.408	5.6
522.756	5.69
523.103	5.7
523.45	5.76
523.798	5.81
524.145	5.84
524.492	5.86
524.839	5.96
525.186	6.11
525.533	6.14
525.88	6.14
526.227	6.18
526.574	6.27
526.921	6.33
527.268	6.39
527.615	6.44
527.961	6.47
528.308	6.56
528.655	6.58
529.001	6.55
529.348	6.62
529.694	6.68
530.041	6.72
530.387	6.75
530.734	6.88
531.08	6.92
531.426	6.94
531.773	7.07
532.119	7.11
532.465	7.13
532.811	7.17
533.157	7.25
533.503	7.34
533.849	7.39
534.195	7.41
534.541	7.45
534.887	7.47
535.233	7.5
535.579	7.53
535.924	7.61
536.27	7.64
536.616	7.69
536.961	7.74
537.307	7.76
537.652	7.8
537.998	7.83
538.343	7.86
538.689	7.95
539.034	8.07
539.379	8.09
539.725	8.13
540.07	8.28
540.415	8.41
540.76	8.48
541.105	8.56
541.45	8.71
541.795	8.77
542.14	8.84
542.485	8.9
542.83	8.9
543.175	8.95
543.519	8.92
543.864	8.9
544.209	8.9
544.554	8.94
544.898	8.99
545.243	9
545.587	9.08
545.932	9.1
546.276	9.15
546.621	9.21
546.965	9.29
547.309	9.39
547.653	9.5
547.998	9.56
548.342	9.65
548.686	9.69
549.03	9.75
549.374	9.82
549.718	9.87
550.062	9.82
550.406	9.86
550.75	9.86
551.094	9.96
551.437	9.97
551.781	10.03
552.125	10.06
552.468	10.18
552.812	10.25
553.156	10.28
553.499	10.3
553.843	10.48
554.186	10.6
554.529	10.69
554.873	10.7
555.216	10.76
555.559	10.77
555.902	10.77
556.246	10.74
556.589	10.76
556.932	10.81
557.275	10.88
557.618	10.93
557.961	11.03
558.304	11.08
558.646	11.19
558.989	11.21
559.332	11.28
559.675	11.33
560.017	11.39
560.36	11.41
560.703	11.51
561.045	11.56
561.388	11.57
561.73	11.55
562.073	11.6
562.415	11.6
562.757	11.69
563.1	11.74
563.442	11.83
563.784	11.89
564.126	11.95
564.468	11.99
564.81	11.99
565.152	12.1
565.494	12.13
565.836	12.13
566.178	12.21
566.52	12.22
566.862	12.34
567.204	12.39
567.545	12.44
567.887	12.48
568.229	12.49
568.57	12.57
568.912	12.57
569.253	12.63
569.595	12.67
569.936	12.66
570.277	12.69
570.619	12.68
570.96	12.73
571.301	12.75
571.642	12.78
571.984	12.83
572.325	12.88
572.666	12.88
573.007	12.88
573.348	12.96
573.689	13.02
574.03	13.04
574.37	13.06
574.711	13.08
575.052	13.1
575.393	13.14
575.733	13.15
576.074	13.15
576.414	13.18
576.755	13.26
577.095	13.28
577.436	13.33
577.776	13.39
578.117	13.41
578.457	13.44
578.797	13.49
579.137	13.53
579.478	13.56
579.818	13.57
580.158	13.62
580.498	13.61
580.838	13.63
581.178	13.65
581.518	13.66
581.858	13.73
582.197	13.75
582.537	13.79
582.877	13.8
583.217	13.86
583.556	13.92
583.896	13.93
584.235	13.99
584.575	14.02
584.914	14.03
585.254	14.05
585.593	14.07
585.933	14.11
586.272	14.12
586.611	14.2
586.95	14.23
587.289	14.26
587.629	14.33
587.968	14.37
588.307	14.43
588.646	14.5
588.985	14.57
589.323	14.62
589.662	14.7
590.001	14.74
590.34	14.75
590.679	14.79
591.017	14.86
591.356	14.89
591.695	14.97
592.033	14.98
592.372	15
592.71	15.05
593.048	15.11
593.387	15.1
593.725	15.16
594.063	15.22
594.402	15.26
594.74	15.31
595.078	15.35
595.416	15.35
595.754	15.46
596.092	15.52
596.43	15.56
596.768	15.58
597.106	15.65
597.444	15.69
597.781	15.74
598.119	15.76
598.457	15.8
598.795	15.83
599.132	15.88
599.47	15.84
599.807	15.86
600.145	15.93
600.482	15.98
600.82	16.04
601.157	16.04
601.494	16.05
601.831	16.13
602.169	16.12
602.506	16.16
602.843	16.21
603.18	16.25
603.517	16.31
603.854	16.3
604.191	16.33
604.528	16.34
604.865	16.38
605.202	16.46
605.538	16.49
605.875	16.55
606.212	16.6
606.548	16.62
606.885	16.7
607.222	16.72
607.558	16.73
607.895	16.82
608.231	16.83
608.567	16.88
608.904	16.86
609.24	16.88
609.576	16.9
609.912	16.95
610.248	17.02
610.585	17.08
610.921	17.12
611.257	17.21
611.593	17.23
611.929	17.33
612.264	17.37
612.6	17.45
612.936	17.48
613.272	17.53
613.608	17.54
613.943	17.55
614.279	17.51
614.614	17.58
614.95	17.6
615.285	17.62
615.621	17.61
615.956	17.61
616.292	17.67
616.627	17.76
616.962	17.84
617.297	17.9
617.632	17.94
617.968	18.02
618.303	18.05
618.638	18.08
618.973	18.11
619.308	18.19
619.643	18.27
619.977	18.3
620.312	18.38
620.647	18.38
620.982	18.35
621.316	18.42
621.651	18.48
621.986	18.52
622.32	18.6
622.655	18.66
622.989	18.66
623.324	18.74
623.658	18.75
623.992	18.72
624.326	18.79
624.661	18.96
624.995	18.97
625.329	19.06
625.663	19.16
625.997	19.18
626.331	19.23
626.665	19.28
626.999	19.26
627.333	19.33
627.667	19.35
628.001	19.36
628.334	19.31
628.668	19.36
629.002	19.31
629.335	19.3
629.669	19.33
630.002	19.37
630.336	19.45
630.669	19.54
631.003	19.61
631.336	19.7
631.669	19.68
632.003	19.81
632.336	19.84
632.669	19.93
633.002	20.01
633.335	20.03
633.668	20.11
634.001	20.16
634.334	20.22
634.667	20.25
635	20.29
635.333	20.42
635.665	20.47
635.998	20.54
636.331	20.64
636.663	20.68
636.996	20.83
637.328	20.87
637.661	20.93
637.993	21.01
638.326	21.11
638.658	21.16
638.99	21.13
639.323	21.09
639.655	21.17
639.987	21.14
640.319	21.16
640.651	21.19
640.983	21.33
641.315	21.31
641.647	21.28
641.979	21.27
642.311	21.28
642.643	21.4
642.975	21.52
643.306	21.54
643.638	21.65
643.97	21.73
644.301	21.79
644.633	21.73
644.964	21.84
645.296	21.92
645.627	21.98
645.959	22.06
646.29	22.2
646.621	22.22
646.952	22.31
647.284	22.32
647.615	22.34
647.946	22.34
648.277	22.41
648.608	22.43
648.939	22.51
649.27	22.65
649.601	22.61
649.931	22.55
650.262	22.61
650.593	22.62
650.924	22.59
651.254	22.69
651.585	22.69
651.915	22.65
652.246	22.71
652.576	22.75
652.907	22.69
653.237	22.81
653.568	22.88
653.898	22.9
654.228	22.86
654.558	22.84
654.888	22.75
655.219	22.77
655.549	22.73
655.879	22.56
656.209	22.42
656.539	22.26
656.868	22.13
657.198	22.01
657.528	21.91
657.858	21.83
658.188	21.76
658.517	21.71
658.847	21.65
659.176	21.57
659.506	21.51
659.835	21.42
660.165	21.36
660.494	21.31
660.824	21.26
661.153	21.23
661.482	21.22
661.811	21.25
662.14	21.24
662.47	21.24
662.799	21.31
663.128	21.44
663.457	21.6
663.786	21.78
664.114	22
664.443	22.26
664.772	22.49
665.101	22.76
665.43	22.94
665.758	23.18
666.087	23.48
666.415	23.68
666.744	23.82
667.072	24
667.401	24.22
667.729	24.39
668.058	24.47
668.386	24.51
668.714	24.5
669.042	24.57
669.371	24.62
669.699	24.69
670.027	24.74
670.355	24.78
670.683	24.72
671.011	24.68
671.339	24.71
671.666	24.79
671.994	24.81
672.322	24.91
672.65	24.82
672.977	24.9
673.305	24.8
673.633	24.87
673.96	24.88
674.288	25
674.615	25.04
674.943	24.94
675.27	24.99
675.597	24.99
675.924	25.01
676.252	25.12
676.579	24.98
676.906	25.04
677.233	25
677.56	25.06
677.887	25.11
678.214	25.13
678.541	25.2
678.868	25.13
679.195	25.18
679.521	25.15
679.848	25.2
680.175	25.42
680.501	25.39
680.828	25.5
681.154	25.5
681.481	25.53
681.807	25.56
682.134	25.61
682.46	25.61
682.787	25.7
683.113	25.79
683.439	25.8
683.765	25.78
684.091	25.89
684.417	25.94
684.743	26.01
685.069	26.02
685.395	26.03
685.721	26.02
686.047	26.12
686.373	26.04
686.699	26.04
687.024	26.08
687.35	26.15
687.676	26.16
688.001	26.1
688.327	26.12
688.652	26.15
688.978	26.21
689.303	26.26
689.629	26.26
689.954	26.33
690.279	26.28
690.604	26.23
690.93	26.16
691.255	26.24
691.58	26.32
691.905	26.35
692.23	26.46
692.555	26.45
692.88	26.48
693.204	26.58
693.529	26.59
693.854	26.67
694.179	26.74
694.503	26.88
694.828	26.87
695.153	26.88
695.477	26.89
695.802	26.86
696.126	26.96
696.451	27
696.775	27
697.099	27.1
697.423	27.18
697.748	27.14
698.072	27.08
698.396	27.11
698.72	27.08
699.044	27.06
699.368	27.03
699.692	26.99
700.016	26.95
700.34	26.96
700.664	26.99
700.987	27.01
701.311	27.11
701.635	27.16
701.958	27.12
702.282	27.26
702.606	27.37
702.929	27.48
703.252	27.47
703.576	27.55
703.899	27.57
704.223	27.57
704.546	27.64
704.869	27.59
705.192	27.64
705.515	27.68
705.838	27.65
706.161	27.6
706.484	27.62
706.807	27.64
707.13	27.73
707.453	27.85
707.776	27.84
708.099	27.87
708.421	28.01
708.744	28.01
709.067	28.02
709.389	28.07
709.712	28.07
710.034	28.07
710.357	28.2
710.679	28.12
711.001	28.09
711.324	28.13
711.646	28.14
711.968	28.22
712.29	28.27
712.612	28.28
712.935	28.24
713.257	28.28
713.579	28.3
713.9	28.31
714.222	28.41
714.544	28.37
714.866	28.35
715.188	28.4
715.509	28.39
715.831	28.41
716.153	28.52
716.474	28.55
716.796	28.66
717.117	28.75
717.439	28.72
717.76	28.69
718.081	28.8
718.403	28.86
718.724	28.86
719.045	28.86
719.366	28.92
719.687	28.92
720.009	29.11
720.33	29.11
720.651	28.99
720.971	29.01
721.292	29.07
721.613	29.07
721.934	29.17
722.255	29.21
722.575	29.27
722.896	29.25
723.217	29.33
723.537	29.25
723.858	29.33
724.178	29.44
724.499	29.51
724.819	29.49
725.139	29.59
725.46	29.6
725.78	29.57
726.1	29.57
726.42	29.7
726.74	29.67
727.06	29.71
727.38	29.64
727.7	29.59
728.02	29.69
728.34	29.62
728.66	29.55
728.98	29.54
729.299	29.6
729.619	29.64
729.939	29.6
730.258	29.67
730.578	29.82
730.897	29.91
731.217	29.94
731.536	29.97
731.856	30.14
732.175	30.22
732.494	30.13
732.814	30.3
733.133	30.28
733.452	30.26
733.771	30.27
734.09	30.06
734.409	30.1
734.728	30.24
735.047	30.17
735.366	30.14
735.684	30.04
736.003	30.15
736.322	30
736.641	29.96
736.959	30.04
737.278	30.05
737.596	30.2
737.915	30.19
738.233	30.1
738.552	30.12
738.87	30.16
739.188	30.27
739.507	30.36
739.825	30.42
740.143	30.52
740.461	30.46
740.779	30.54
741.097	30.56
741.415	30.45
741.733	31.1
742.051	31.2
742.369	31.33
742.687	31.38
743.004	31.32
743.322	31.35
743.64	31.43
743.957	31.44
744.275	31.49
744.593	31.55
744.91	31.81
745.227	31.25
745.545	31.36
745.862	31.32
746.179	31.32
746.497	31.46
746.814	31.63
747.131	31.58
747.448	31.83
747.765	31.92
748.082	31.99
748.399	32.03
748.716	32.1
749.033	31.99
749.35	32.06
749.667	32.1
749.983	32.08
750.3	31.96
750.617	32.27
750.933	32.15
751.25	31.95
751.566	31.94
751.883	31.79
752.199	31.85
752.516	31.94
752.832	31.95
753.148	31.96
753.464	31.93
753.781	31.98
754.097	31.83
754.413	31.91
754.729	32.13
755.045	32.05
755.361	32.02
755.677	32.04
755.992	31.96
756.308	31.94
756.624	32.1
756.94	32.14
757.255	32.24
757.571	32.26
757.887	32.27
758.202	32.27
758.518	32.46
758.833	32.61
759.148	32.56
759.464	32.66
759.779	32.7
760.094	32.69
760.41	32.78
760.725	32.87
761.04	32.89
761.355	32.9
761.67	32.84
761.985	32.74
762.3	32.73
762.615	32.7
762.93	32.65
763.244	32.59
763.559	32.72
763.874	32.68
764.188	32.57
764.503	32.49
764.818	32.5
765.132	32.54
765.447	32.65
765.761	32.7
766.075	32.78
766.39	32.83
766.704	33.06
767.018	32.87
767.332	33.05
767.646	33.09
767.961	33.21
768.275	33.3
768.589	33.35
768.903	33.36
769.216	33.35
769.53	33.38
769.844	33.46
770.158	33.36
770.472	33.44
770.785	33.31
771.099	33.29
771.413	33.45
771.726	33.51
772.04	33.55
772.353	33.58
772.666	33.63
772.98	33.67
773.293	33.71
773.606	33.74
773.919	33.83
774.233	33.93
774.546	34.05
774.859	33.99
775.172	33.84
775.485	33.8
775.798	33.99
776.111	34.06
776.423	34.2
776.736	34.34
777.049	34.43
777.362	34.58
777.674	34.87
777.987	34.97
778.299	34.96
778.612	35.28
778.924	35.56
779.237	35.47
779.549	35.67
779.862	35.77
780.174	35.82
780.486	35.85
780.798	35.71
781.11	35.34
781.422	35.33
781.735	35.43
782.046	35.28
782.358	35.2
782.67	35.12
782.982	34.88
783.294	34.73
783.606	34.76
783.917	34.75
784.229	34.94
784.541	35.15
784.852	35.08
785.164	35.06
785.475	35.11
785.787	35.16
786.098	35.29
786.41	35.33
786.721	35.33
787.032	35.28
787.343	35.31
787.654	35.11
787.966	35.3
788.277	35.44
788.588	35.52
788.899	35.73
789.209	35.68
789.52	35.53
789.831	35.74
790.142	36.04
790.453	36.13
790.763	36.03
791.074	36.4
791.385	36.21
791.695	36.33
792.006	36.43
792.316	36.55
792.626	36.78
792.937	37.02
793.247	36.99
793.557	36.93
793.868	36.97
794.178	37.31
794.488	37.42
794.798	37.5
795.108	37.45
795.418	37.49
795.728	37.27
796.038	37.34
796.348	37.27
796.657	37.36
796.967	37.48
797.277	37.25
797.587	37.35
797.896	36.98
798.206	36.92
798.515	37.02
798.825	37.13
799.134	37.37
799.444	37.44
799.753	37.48
800.062	37.34
800.371	37.2
800.681	37.56
800.99	37.43
801.299	37.64
801.608	37.76
801.917	37.64
802.226	37.89
802.535	37.94
802.844	37.68
803.152	37.72
803.461	37.88
803.77	37.81
804.078	37.85
804.387	37.99
804.696	37.87
805.004	37.78
805.313	37.87
805.621	37.36
805.93	37.15
806.238	37.31
806.546	37.53
806.854	37.66
807.163	37.8
807.471	37.56
807.779	37.47
808.087	37.54
808.395	37.91
808.703	38.14
809.011	38.24
809.319	38.26
809.626	38.12
809.934	38.08
810.242	38.22
810.55	38.24
810.857	38.58
811.165	38.58
811.472	38.77
811.78	38.84
812.087	38.63
812.395	38.68
812.702	38.82
813.009	38.63
813.317	38.56
813.624	38.42
813.931	38.28
814.238	38.35
814.545	38.16
814.852	38.39
815.159	38.16
815.466	38.29
815.773	38.24
816.08	38.29
816.387	38.46
816.693	38.61
817	38.68
817.307	38.8
817.613	38.78
817.92	39.26
818.226	39.16
818.533	39.27
818.839	39.35
819.146	39.42
819.452	39.38
819.758	39.82
820.064	39.98
820.371	40
820.677	40.05
820.983	39.5
821.289	38.98
821.595	38.47
821.901	38.14
822.207	37.73
822.512	37.81
822.818	38.24
823.124	38.14
823.43	38.21
823.735	38.43
824.041	38.53
824.347	39.34
824.652	39.67
824.957	39.98
825.263	40.52
825.568	40.92
825.874	41.09
826.179	40.42
826.484	40.58
826.789	40.43
827.094	40.41
827.399	40.26
827.705	39.91
828.01	39.7
828.314	39.65
828.619	39.28
828.924	39.42
829.229	39.24
829.534	39.46
829.838	39.39
830.143	39.28
830.448	39.37
830.752	39.74
831.057	39.81
831.361	40.22
831.666	40.05
831.97	40.43
832.274	40.62
832.579	40.78
832.883	41.25
833.187	41.4
833.491	41.01
833.795	40.93
834.099	40.51
834.403	40.58
834.707	40.81
835.011	41.32
835.315	40.84
835.619	40.54
835.923	40.96
836.226	40.61
836.53	40.01
836.834	40.61
837.137	40.56
837.441	41.33
837.744	41.14
838.048	41.23
838.351	41.57
838.654	41.53
838.958	41.45
839.261	41.16
839.564	41.45
839.867	41.65
840.17	41.43
840.473	41.23
840.776	40.51
841.079	40.29
841.382	39.65
841.685	39.2
841.988	39.67
842.291	39.45
842.593	39.24
842.896	38.46
843.199	38.37
843.501	38.17
843.804	38.09
844.106	37.71
844.409	38.48
844.711	38.87
845.013	38.77
845.316	38.58
845.618	38.26
845.92	38.11
846.222	37.97
846.524	38.21
846.826	38.55
847.128	39.34
847.43	40.43
847.732	40
848.034	39.44
848.336	39.39
848.638	39.38
848.939	40.59
849.241	41.88
849.543	42.71
849.844	42.47
850.146	42.65
850.447	42.02
850.749	41.88
851.05	41.8
851.351	43.01
851.653	43.69
851.954	44.07
852.255	44.22
852.556	43.19
852.857	42.78
853.158	42.8
853.459	42.55
853.76	42.36
854.061	42.44
854.362	42.51
854.663	42.07
854.964	41.5
855.264	41.17
855.565	40.84
855.866	40.45
856.166	40.76
856.467	41.18
856.767	41.74
857.068	42.16
857.368	42.09
857.668	43.22
857.969	42.81
858.269	43.61
858.569	43.55
858.869	42.96
859.169	43
859.469	43.07
859.769	43.42
860.069	42.87
860.369	42.81
860.669	43.36
860.969	43.02
861.269	43.44
861.568	43.05
861.868	44.07
862.168	44.45
862.467	45.59
862.767	45.76
863.066	46.47
863.366	47.48
863.665	47.8
863.964	46.3
864.264	46.14
864.563	46.15
864.862	45.21
865.161	44.56
865.46	44.68
865.759	45.1
866.058	45.16
866.357	44.18
866.656	42.97
866.955	44.02
867.254	44.83
867.552	42.93
867.851	42.98
868.15	44.07
868.448	44.34
868.747	43.68
869.045	41.74
869.344	41.22
869.642	40.41
869.941	41.7
870.239	40.31
870.537	41.18
870.836	41.8
871.134	40.9
871.432	40.9
871.73	39.84
872.028	40.05
872.326	40.6
872.624	39.92
872.922	40.93
873.22	39.81
873.517	37.84
873.815	36.95
874.113	36.66
874.411	38.17
874.708	38.01
875.006	38.94
875.303	38.49
875.601	40.26
875.898	40.43
876.195	40.18
876.493	41.19
876.79	43.42
877.087	44.24
877.384	45.72
877.682	44.27
877.979	43.88
878.276	43.62
878.573	45.21
878.87	43.29
879.166	45.21
879.463	45.29
