Data from battus_ven_HW_orange_right_6_Reflection__0__123.txt Node

Date: Mon Dec 12 11:51:52 EST 2022
User: abbyrobinson
Spectrometer: USB2G8287
Scans to average: 10
Trigger mode: 4
Integration Time (sec): 1.000000E-1
Electric dark correction enabled: true
Boxcar width: 5
XAxis mode: Wavelengths
Number of Pixels in Spectrum: 2048
>>>>>Begin Spectral Data<<<<<
177.272	91.94
177.658	80.14
178.044	70.07
178.43	77.36
178.816	94.34
179.203	87.24
179.589	110.74
179.975	124.03
180.361	115.74
180.747	99.89
181.133	99.26
181.519	98.55
181.904	80.14
182.29	76.59
182.676	74.75
183.062	103.53
183.447	98.24
183.833	93.49
184.219	72.56
184.604	74.51
184.99	81.29
185.375	142.1
185.761	327.9
186.146	-129.67
186.531	-61.69
186.917	-77.07
187.302	-19.97
187.687	-19.64
188.073	-24.98
188.458	-40.78
188.843	-30.27
189.228	-26.91
189.613	-43.13
189.998	-21.77
190.383	-28.08
190.768	-45.22
191.153	-26.8
191.538	-17.04
191.923	-4.98
192.307	-5.79
192.692	0.02
193.077	-8.32
193.461	-17.95
193.846	-14.47
194.231	-21.88
194.615	-26.37
195	-16.53
195.384	-32.05
195.769	-32.41
196.153	-37.6
196.537	-32.11
196.922	-40.17
197.306	-27.42
197.69	-19.67
198.074	-21.3
198.458	-24.11
198.843	-16.48
199.227	-17.51
199.611	-16.18
199.995	-13.65
200.379	-23.25
200.763	-20.86
201.146	-19.07
201.53	-22.93
201.914	-19.25
202.298	-17.95
202.681	-18.83
203.065	-20.38
203.449	-15.33
203.832	-13.32
204.216	-23.69
204.599	47.78
204.983	49.2
205.366	49.44
205.75	46.53
206.133	40.54
206.516	42.59
206.9	45.69
207.283	40.48
207.666	40.21
208.049	40.8
208.432	42.25
208.815	-14.72
209.198	-27.37
209.581	-28.56
209.964	-18.56
210.347	-14.52
210.73	-7.8
211.113	-10.9
211.496	1.32
211.879	-5.51
212.261	-15.78
212.644	-19.65
213.027	-17.57
213.409	-11.47
213.792	-17.85
214.174	-24.29
214.557	-14.99
214.939	-25.47
215.322	-20.6
215.704	-24.72
216.086	-20.35
216.469	-13.05
216.851	-14.51
217.233	-18.11
217.615	-23
217.997	-18.42
218.379	-15.62
218.761	-16.15
219.143	-6.04
219.525	-9.87
219.907	-8.19
220.289	-5.58
220.671	-8.82
221.053	-5.52
221.435	-3.59
221.816	-1.27
222.198	2.03
222.58	2.02
222.961	1.47
223.343	-3.53
223.724	0.01
224.106	-4.39
224.487	-7.88
224.869	-4.69
225.25	-10.33
225.631	-11.28
226.013	-7.9
226.394	-11.22
226.775	-11.38
227.156	-13.04
227.537	-11.59
227.919	-15.24
228.3	-13.15
228.681	-12.71
229.062	-12.92
229.442	-11.61
229.823	-11.6
230.204	-11.06
230.585	-10.91
230.966	-9.45
231.347	-7.3
231.727	-6.62
232.108	-4.34
232.488	-3.15
232.869	-1.21
233.25	-1.51
233.63	-0.94
234.01	-0.54
234.391	-0.27
234.771	0.41
235.152	0.76
235.532	-0.21
235.912	0.76
236.292	0.97
236.672	1.16
237.053	1.27
237.433	1.89
237.813	2.43
238.193	2.83
238.573	2.82
238.953	3.39
239.333	3.05
239.712	3.92
240.092	3.65
240.472	3.88
240.852	4.08
241.231	4.36
241.611	4.52
241.991	4.75
242.37	5.09
242.75	5.32
243.129	5.35
243.509	6.01
243.888	6.1
244.267	6.44
244.647	6.71
245.026	6.95
245.405	7.01
245.784	7.13
246.164	7.05
246.543	7.01
246.922	6.88
247.301	7.06
247.68	7.03
248.059	7.1
248.438	7.11
248.817	6.87
249.195	6.84
249.574	6.86
249.953	6.92
250.332	7.01
250.71	7.2
251.089	7.48
251.468	7.4
251.846	7.26
252.225	7.27
252.603	7.31
252.982	7.61
253.36	7.58
253.738	7.68
254.117	7.64
254.495	7.57
254.873	7.54
255.251	7.48
255.63	7.52
256.008	7.56
256.386	7.5
256.764	7.44
257.142	7.37
257.52	7.35
257.898	7.37
258.276	7.4
258.653	7.41
259.031	7.36
259.409	7.35
259.787	7.41
260.164	7.51
260.542	7.57
260.92	7.62
261.297	7.58
261.675	7.63
262.052	7.56
262.43	7.56
262.807	7.64
263.184	7.64
263.562	7.65
263.939	7.65
264.316	7.55
264.693	7.53
265.07	7.52
265.448	7.54
265.825	7.5
266.202	7.45
266.579	7.47
266.956	7.46
267.333	7.42
267.709	7.46
268.086	7.4
268.463	7.48
268.84	7.39
269.216	7.42
269.593	7.37
269.97	7.36
270.346	7.35
270.723	7.36
271.099	7.27
271.476	7.28
271.852	7.22
272.229	7.25
272.605	7.25
272.981	7.28
273.358	7.27
273.734	7.21
274.11	7.23
274.486	7.34
274.862	7.33
275.238	7.45
275.614	7.52
275.99	7.51
276.366	7.45
276.742	7.38
277.118	7.41
277.494	7.48
277.87	7.58
278.245	7.63
278.621	7.56
278.997	7.6
279.372	7.61
279.748	7.51
280.123	7.51
280.499	7.54
280.874	7.53
281.25	7.57
281.625	7.46
282	7.44
282.376	7.4
282.751	7.41
283.126	7.4
283.501	7.36
283.876	7.42
284.252	7.51
284.627	7.54
285.002	7.55
285.377	7.5
285.751	7.6
286.126	7.58
286.501	7.58
286.876	7.57
287.251	7.53
287.625	7.53
288	7.49
288.375	7.45
288.749	7.43
289.124	7.51
289.498	7.56
289.873	7.43
290.247	7.44
290.622	7.39
290.996	7.41
291.37	7.36
291.745	7.38
292.119	7.44
292.493	7.5
292.867	7.54
293.241	7.52
293.616	7.55
293.99	7.61
294.364	7.68
294.737	7.75
295.111	7.74
295.485	7.82
295.859	7.84
296.233	7.77
296.607	7.73
296.98	7.79
297.354	7.79
297.728	7.75
298.101	7.71
298.475	7.67
298.848	7.72
299.222	7.73
299.595	7.72
299.968	7.75
300.342	7.81
300.715	7.82
301.088	7.78
301.462	7.74
301.835	7.7
302.208	7.71
302.581	7.69
302.954	7.61
303.327	7.63
303.7	7.61
304.073	7.58
304.446	7.53
304.819	7.57
305.192	7.56
305.564	7.64
305.937	7.75
306.31	7.8
306.682	7.86
307.055	7.95
307.428	7.92
307.8	7.88
308.173	7.82
308.545	7.9
308.917	7.8
309.29	7.72
309.662	7.7
310.034	7.81
310.407	7.83
310.779	7.78
311.151	7.77
311.523	7.83
311.895	7.84
312.267	7.91
312.639	7.86
313.011	7.86
313.383	7.98
313.755	7.86
314.127	7.66
314.498	7.62
314.87	7.6
315.242	7.62
315.614	7.55
315.985	7.61
316.357	7.64
316.728	7.69
317.1	7.76
317.471	7.67
317.843	7.81
318.214	7.87
318.585	7.91
318.957	7.93
319.328	7.91
319.699	7.92
320.07	7.85
320.441	7.8
320.813	7.77
321.184	7.8
321.555	7.76
321.926	7.74
322.297	7.68
322.667	7.67
323.038	7.7
323.409	7.7
323.78	7.67
324.151	7.69
324.521	7.69
324.892	7.62
325.262	7.56
325.633	7.55
326.004	7.56
326.374	7.67
326.744	7.57
327.115	7.46
327.485	7.42
327.855	7.42
328.226	7.44
328.596	7.41
328.966	7.39
329.336	7.33
329.706	7.31
330.076	7.2
330.447	7.1
330.816	7.1
331.186	7.14
331.556	7.1
331.926	7.09
332.296	7.01
332.666	6.95
333.036	6.97
333.405	6.97
333.775	6.9
334.144	6.94
334.514	6.93
334.884	6.9
335.253	6.82
335.623	6.83
335.992	6.73
336.361	6.79
336.731	6.76
337.1	6.7
337.469	6.73
337.838	6.66
338.208	6.55
338.577	6.45
338.946	6.41
339.315	6.45
339.684	6.34
340.053	6.34
340.422	6.23
340.79	6.13
341.159	6.09
341.528	5.92
341.897	6.01
342.266	5.99
342.634	5.96
343.003	5.93
343.371	5.8
343.74	5.71
344.108	5.61
344.477	5.53
344.845	5.56
345.214	5.45
345.582	5.48
345.95	5.35
346.319	5.23
346.687	5.2
347.055	5.2
347.423	5.14
347.791	5.12
348.159	5.16
348.527	5.15
348.895	5.08
349.263	5.15
349.631	5.11
349.999	5.15
350.367	5.15
350.734	5.07
351.102	4.98
351.47	4.94
351.837	4.9
352.205	4.84
352.573	4.77
352.94	4.79
353.308	4.74
353.675	4.63
354.042	4.52
354.41	4.42
354.777	4.34
355.144	4.26
355.511	4.25
355.879	4.17
356.246	4.06
356.613	4.01
356.98	3.95
357.347	3.88
357.714	3.81
358.081	3.83
358.448	3.87
358.815	3.84
359.181	3.83
359.548	3.85
359.915	3.79
360.282	3.83
360.648	3.76
361.015	3.71
361.381	3.82
361.748	3.89
362.114	3.78
362.481	3.74
362.847	3.69
363.214	3.7
363.58	3.55
363.946	3.62
364.312	3.56
364.678	3.56
365.045	3.58
365.411	3.49
365.777	3.42
366.143	3.39
366.509	3.39
366.875	3.4
367.241	3.47
367.606	3.48
367.972	3.38
368.338	3.34
368.704	3.34
369.069	3.31
369.435	3.22
369.801	3.19
370.166	3.22
370.532	3.25
370.897	3.24
371.263	3.15
371.628	3.21
371.993	3.22
372.359	3.29
372.724	3.26
373.089	3.18
373.454	3.17
373.82	3.24
374.185	3.23
374.55	3.19
374.915	3.16
375.28	3.08
375.645	3.02
376.01	3.1
376.374	3.02
376.739	3.04
377.104	3.06
377.469	3.07
377.833	3.04
378.198	3.11
378.563	3.13
378.927	3.17
379.292	3.22
379.656	3.23
380.021	3.09
380.385	3.13
380.749	3.2
381.114	3.22
381.478	3.22
381.842	3.21
382.206	3.09
382.571	3.08
382.935	2.96
383.299	2.97
383.663	2.94
384.027	3.01
384.391	2.96
384.755	2.94
385.118	2.89
385.482	2.89
385.846	2.87
386.21	2.87
386.573	2.89
386.937	2.94
387.301	2.97
387.664	2.96
388.028	2.94
388.391	3.01
388.755	2.98
389.118	2.93
389.481	2.94
389.845	2.9
390.208	2.92
390.571	2.88
390.934	2.9
391.298	2.87
391.661	2.88
392.024	2.89
392.387	2.85
392.75	2.84
393.113	2.87
393.476	2.87
393.838	2.9
394.201	2.89
394.564	2.92
394.927	2.89
395.289	2.83
395.652	2.81
396.015	2.8
396.377	2.85
396.74	2.85
397.102	2.91
397.465	2.88
397.827	2.93
398.189	2.95
398.552	2.95
398.914	2.91
399.276	2.96
399.638	3.05
400	3.11
400.363	3.08
400.725	3.07
401.087	2.97
401.449	2.99
401.81	2.95
402.172	3.01
402.534	3.05
402.896	3.13
403.258	3.13
403.619	3.1
403.981	3.06
404.343	3.06
404.704	3.05
405.066	3.09
405.427	3.08
405.789	3.07
406.15	3
406.512	2.89
406.873	2.89
407.234	2.88
407.596	2.85
407.957	2.86
408.318	2.88
408.679	2.88
409.04	2.94
409.401	2.95
409.762	2.89
410.123	2.88
410.484	2.93
410.845	2.94
411.206	2.94
411.567	2.96
411.927	2.97
412.288	2.9
412.649	3.4
413.009	3.39
413.37	3.42
413.731	3.49
414.091	3.48
414.452	3.49
414.812	3.49
415.172	3.45
415.533	3.44
415.893	3.38
416.253	3.35
416.613	2.86
416.974	2.89
417.334	2.87
417.694	2.86
418.054	2.83
418.414	2.8
418.774	2.74
419.134	2.81
419.494	2.8
419.853	2.82
420.213	2.86
420.573	2.86
420.933	2.78
421.292	2.76
421.652	2.7
422.011	2.76
422.371	2.74
422.73	2.81
423.09	2.83
423.449	2.84
423.809	2.86
424.168	2.92
424.527	2.97
424.887	3.01
425.246	3.02
425.605	3.09
425.964	3.07
426.323	3.12
426.682	3.05
427.041	3.07
427.4	3.06
427.759	3.09
428.118	3.04
428.477	3.03
428.835	3.07
429.194	3.07
429.553	3.03
429.911	3.06
430.27	3.03
430.629	3.15
430.987	3.15
431.346	3.11
431.704	3.09
432.062	3.12
432.421	3.14
432.779	3.11
433.137	3.13
433.496	3.18
433.854	3.18
434.212	3.2
434.57	3.17
434.928	3.16
435.286	3.22
435.644	3.2
436.002	3.22
436.36	3.21
436.718	3.17
437.075	3.23
437.433	3.25
437.791	3.22
438.149	3.2
438.506	3.11
438.864	3.09
439.221	3.06
439.579	3.1
439.936	3.08
440.294	3.07
440.651	3.13
441.009	3.03
441.366	3.01
441.723	3.02
442.08	3.07
442.437	3.11
442.795	3.15
443.152	3.17
443.509	3.17
443.866	3.21
444.223	3.25
444.58	3.23
444.936	3.31
445.293	3.31
445.65	3.32
446.007	3.36
446.363	3.37
446.72	3.34
447.077	3.44
447.433	3.44
447.79	3.45
448.146	3.44
448.503	3.49
448.859	3.53
449.215	3.59
449.572	3.64
449.928	3.61
450.284	3.68
450.641	3.69
450.997	3.68
451.353	3.72
451.709	3.76
452.065	3.81
452.421	3.78
452.777	3.72
453.133	3.75
453.488	3.8
453.844	3.9
454.2	3.91
454.556	3.95
454.911	3.92
455.267	3.93
455.623	3.95
455.978	3.96
456.334	4.08
456.689	4.12
457.045	4.11
457.4	4.1
457.755	4.01
458.111	4.06
458.466	4.08
458.821	4.08
459.176	4.09
459.531	4.11
459.886	4.03
460.242	3.97
460.597	4.01
460.951	4.01
461.306	4.02
461.661	4.09
462.016	4.06
462.371	4.09
462.726	4.12
463.08	4.15
463.435	4.15
463.79	4.21
464.144	4.27
464.499	4.28
464.853	4.28
465.208	4.36
465.562	4.44
465.916	4.46
466.271	4.51
466.625	4.61
466.979	4.63
467.333	4.7
467.688	4.78
468.042	4.78
468.396	4.85
468.75	4.87
469.104	4.89
469.458	4.81
469.811	4.87
470.165	4.92
470.519	4.97
470.873	4.99
471.227	5.01
471.58	5.01
471.934	5.05
472.287	4.99
472.641	4.99
472.995	4.93
473.348	5.04
473.701	5.03
474.055	4.94
474.408	4.89
474.761	4.9
475.115	4.9
475.468	4.85
475.821	4.9
476.174	5.01
476.527	5.12
476.88	5.19
477.233	5.22
477.586	5.28
477.939	5.36
478.292	5.38
478.645	5.39
478.998	5.41
479.35	5.49
479.703	5.51
480.056	5.52
480.408	5.51
480.761	5.57
481.113	5.61
481.466	5.62
481.818	5.63
482.171	5.67
482.523	5.7
482.875	5.77
483.228	5.81
483.58	5.86
483.932	5.89
484.284	5.95
484.636	5.97
484.988	5.98
485.34	6.06
485.692	6.12
486.044	6.2
486.396	6.24
486.748	6.3
487.1	6.34
487.451	6.36
487.803	6.41
488.155	6.41
488.506	6.47
488.858	6.51
489.209	6.49
489.561	6.54
489.912	6.59
490.264	6.64
490.615	6.64
490.966	6.72
491.318	6.76
491.669	6.79
492.02	6.88
492.371	6.91
492.722	6.99
493.073	7.06
493.424	7.14
493.775	7.09
494.126	7.13
494.477	7.2
494.828	7.18
495.179	7.23
495.53	7.28
495.88	7.27
496.231	7.29
496.582	7.35
496.932	7.42
497.283	7.43
497.633	7.53
497.984	7.63
498.334	7.66
498.684	7.71
499.035	7.76
499.385	7.8
499.735	7.92
500.086	7.97
500.436	7.98
500.786	8.03
501.136	8.09
501.486	8.2
501.836	8.22
502.186	8.33
502.536	8.4
502.886	8.46
503.235	8.54
503.585	8.61
503.935	8.64
504.285	8.79
504.634	8.92
504.984	9
505.333	9.1
505.683	9.21
506.032	9.28
506.382	9.32
506.731	9.37
507.08	9.49
507.43	9.57
507.779	9.72
508.128	9.75
508.477	9.81
508.826	9.94
509.176	9.96
509.525	10.07
509.874	10.16
510.222	10.36
510.571	10.5
510.92	10.63
511.269	10.74
511.618	10.82
511.967	10.9
512.315	11.02
512.664	11.07
513.012	11.17
513.361	11.25
513.71	11.33
514.058	11.37
514.406	11.47
514.755	11.46
515.103	11.51
515.451	11.6
515.8	11.68
516.148	11.73
516.496	11.84
516.844	11.91
517.192	11.94
517.54	12.02
517.888	12.15
518.236	12.26
518.584	12.41
518.932	12.52
519.28	12.64
519.628	12.71
519.975	12.79
520.323	12.9
520.671	13.06
521.018	13.19
521.366	13.38
521.713	13.53
522.061	13.63
522.408	13.74
522.756	13.96
523.103	14.05
523.45	14.24
523.798	14.38
524.145	14.41
524.492	14.51
524.839	14.69
525.186	14.84
525.533	14.95
525.88	15.06
526.227	15.15
526.574	15.27
526.921	15.43
527.268	15.54
527.615	15.71
527.961	15.95
528.308	16.13
528.655	16.2
529.001	16.32
529.348	16.41
529.694	16.59
530.041	16.79
530.387	16.9
530.734	17.1
531.08	17.23
531.426	17.38
531.773	17.49
532.119	17.65
532.465	17.82
532.811	17.91
533.157	18.09
533.503	18.22
533.849	18.43
534.195	18.58
534.541	18.68
534.887	18.88
535.233	19.02
535.579	19.21
535.924	19.32
536.27	19.48
536.616	19.65
536.961	19.81
537.307	19.97
537.652	20.1
537.998	20.24
538.343	20.41
538.689	20.6
539.034	20.83
539.379	20.94
539.725	21.12
540.07	21.26
540.415	21.38
540.76	21.58
541.105	21.78
541.45	21.96
541.795	22.17
542.14	22.36
542.485	22.46
542.83	22.58
543.175	22.76
543.519	22.88
543.864	23.05
544.209	23.23
544.554	23.33
544.898	23.47
545.243	23.55
545.587	23.7
545.932	23.86
546.276	24.05
546.621	24.13
546.965	24.32
547.309	24.51
547.653	24.68
547.998	24.86
548.342	25.04
548.686	25.14
549.03	25.37
549.374	25.48
549.718	25.63
550.062	25.73
550.406	25.9
550.75	26.02
551.094	26.17
551.437	26.35
551.781	26.5
552.125	26.66
552.468	26.86
552.812	27
553.156	27.25
553.499	27.34
553.843	27.51
554.186	27.74
554.529	27.88
554.873	28.01
555.216	28.12
555.559	28.28
555.902	28.4
556.246	28.54
556.589	28.64
556.932	28.69
557.275	28.89
557.618	29.1
557.961	29.17
558.304	29.35
558.646	29.51
558.989	29.61
559.332	29.72
559.675	29.87
560.017	30.15
560.36	30.22
560.703	30.37
561.045	30.51
561.388	30.59
561.73	30.78
562.073	30.92
562.415	31.08
562.757	31.23
563.1	31.42
563.442	31.59
563.784	31.62
564.126	31.79
564.468	32
564.81	32.04
565.152	32.24
565.494	32.27
565.836	32.38
566.178	32.55
566.52	32.66
566.862	32.73
567.204	32.84
567.545	32.99
567.887	33.11
568.229	33.15
568.57	33.33
568.912	33.43
569.253	33.67
569.595	33.76
569.936	33.84
570.277	34.07
570.619	34.22
570.96	34.27
571.301	34.38
571.642	34.49
571.984	34.6
572.325	34.72
572.666	34.82
573.007	34.89
573.348	34.98
573.689	35.08
574.03	35.13
574.37	35.17
574.711	35.26
575.052	35.34
575.393	35.44
575.733	35.54
576.074	35.63
576.414	35.7
576.755	35.81
577.095	35.93
577.436	36.01
577.776	36.09
578.117	36.22
578.457	36.32
578.797	36.37
579.137	36.47
579.478	36.54
579.818	36.63
580.158	36.73
580.498	36.8
580.838	36.89
581.178	36.96
581.518	37.05
581.858	37.15
582.197	37.28
582.537	37.38
582.877	37.43
583.217	37.55
583.556	37.61
583.896	37.68
584.235	37.81
584.575	37.89
584.914	37.97
585.254	38.07
585.593	38.15
585.933	38.22
586.272	38.36
586.611	38.5
586.95	38.57
587.289	38.71
587.629	38.82
587.968	38.86
588.307	38.98
588.646	39.13
588.985	39.25
589.323	39.34
589.662	39.43
590.001	39.52
590.34	39.62
590.679	39.76
591.017	39.85
591.356	39.94
591.695	40.09
592.033	40.21
592.372	40.3
592.71	40.39
593.048	40.5
593.387	40.63
593.725	40.7
594.063	40.77
594.402	40.84
594.74	40.93
595.078	41.06
595.416	41.11
595.754	41.2
596.092	41.32
596.43	41.42
596.768	41.57
597.106	41.63
597.444	41.73
597.781	41.77
598.119	41.87
598.457	41.92
598.795	41.99
599.132	42.06
599.47	42.1
599.807	42.12
600.145	42.21
600.482	42.22
600.82	42.3
601.157	42.38
601.494	42.51
601.831	42.58
602.169	42.67
602.506	42.76
602.843	42.82
603.18	42.93
603.517	43.05
603.854	43.12
604.191	43.21
604.528	43.29
604.865	43.38
605.202	43.38
605.538	43.45
605.875	43.55
606.212	43.64
606.548	43.73
606.885	43.74
607.222	43.75
607.558	43.83
607.895	43.88
608.231	43.96
608.567	44.07
608.904	44.18
609.24	44.23
609.576	44.3
609.912	44.33
610.248	44.39
610.585	44.45
610.921	44.55
611.257	44.61
611.593	44.75
611.929	44.8
612.264	44.82
612.6	44.91
612.936	45.01
613.272	45.08
613.608	45.12
613.943	45.27
614.279	45.4
614.614	45.48
614.95	45.49
615.285	45.53
615.621	45.57
615.956	45.67
616.292	45.8
616.627	45.87
616.962	45.98
617.297	46.14
617.632	46.17
617.968	46.22
618.303	46.33
618.638	46.41
618.973	46.49
619.308	46.6
619.643	46.72
619.977	46.74
620.312	46.73
620.647	46.74
620.982	46.75
621.316	46.88
621.651	46.95
621.986	46.99
622.32	47.14
622.655	47.17
622.989	47.31
623.324	47.27
623.658	47.4
623.992	47.47
624.326	47.59
624.661	47.6
624.995	47.63
625.329	47.74
625.663	47.77
625.997	47.81
626.331	47.93
626.665	47.93
626.999	48.06
627.333	48.08
627.667	48.17
628.001	48.18
628.334	48.32
628.668	48.35
629.002	48.37
629.335	48.47
629.669	48.51
630.002	48.54
630.336	48.62
630.669	48.68
631.003	48.79
631.336	48.9
631.669	49
632.003	49.03
632.336	49.12
632.669	49.21
633.002	49.22
633.335	49.39
633.668	49.39
634.001	49.44
634.334	49.47
634.667	49.48
635	49.54
635.333	49.59
635.665	49.71
635.998	49.72
636.331	49.7
636.663	49.82
636.996	49.83
637.328	49.95
637.661	49.98
637.993	50.08
638.326	50.15
638.658	50.15
638.99	50.23
639.323	50.26
639.655	50.39
639.987	50.45
640.319	50.54
640.651	50.58
640.983	50.65
641.315	50.71
641.647	50.76
641.979	50.88
642.311	50.95
642.643	51.05
642.975	51.11
643.306	51.11
643.638	51.3
643.97	51.35
644.301	51.43
644.633	51.44
644.964	51.56
645.296	51.54
645.627	51.49
645.959	51.54
646.29	51.6
646.621	51.66
646.952	51.75
647.284	51.76
647.615	51.76
647.946	51.82
648.277	51.95
648.608	51.99
648.939	52.03
649.27	52.07
649.601	52.14
649.931	51.98
650.262	51.97
650.593	52.08
650.924	52.11
651.254	52.26
651.585	52.3
651.915	52.19
652.246	52.32
652.576	52.39
652.907	52.54
653.237	52.65
653.568	52.92
653.898	53.01
654.228	53.03
654.558	53.12
654.888	53.08
655.219	53.18
655.549	53.29
655.879	53.21
656.209	53.26
656.539	53.15
656.868	53.18
657.198	53.15
657.528	53.12
657.858	53.08
658.188	53.04
658.517	53.03
658.847	53.05
659.176	53.07
659.506	53.09
659.835	53.09
660.165	53.12
660.494	53.12
660.824	53.14
661.153	53.18
661.482	53.23
661.811	53.3
662.14	53.34
662.47	53.36
662.799	53.4
663.128	53.47
663.457	53.59
663.786	53.7
664.114	53.78
664.443	53.86
664.772	53.98
665.101	54.08
665.43	54.2
665.758	54.38
666.087	54.48
666.415	54.65
666.744	54.73
667.072	54.77
667.401	54.89
667.729	55.06
668.058	55.09
668.386	55.05
668.714	55.12
669.042	55.12
669.371	55.15
669.699	55.22
670.027	55.37
670.355	55.4
670.683	55.51
671.011	55.61
671.339	55.62
671.666	55.77
671.994	56.01
672.322	56.1
672.65	56.28
672.977	56.33
673.305	56.34
673.633	56.28
673.96	56.32
674.288	56.29
674.615	56.18
674.943	56.18
675.27	56.12
675.597	56.02
675.924	56
676.252	55.79
676.579	55.87
676.906	55.99
677.233	55.97
677.56	56.06
677.887	56.16
678.214	56.23
678.541	56.31
678.868	56.44
679.195	56.6
679.521	56.65
679.848	56.85
680.175	56.91
680.501	56.89
680.828	56.99
681.154	57.01
681.481	57.02
681.807	57.09
682.134	57.12
682.46	57.11
682.787	57.1
683.113	57.15
683.439	57.18
683.765	57.19
684.091	57.19
684.417	57.19
684.743	57.26
685.069	57.3
685.395	57.22
685.721	57.24
686.047	57.28
686.373	57.26
686.699	57.3
687.024	57.27
687.35	57.37
687.676	57.42
688.001	57.59
688.327	57.63
688.652	57.69
688.978	57.96
689.303	58
689.629	58.09
689.954	58.13
690.279	58.14
690.604	58.19
690.93	58.14
691.255	58.23
691.58	58.22
691.905	58.3
692.23	58.24
692.555	58.17
692.88	58.17
693.204	58.1
693.529	58.11
693.854	58.16
694.179	58.3
694.503	58.32
694.828	58.33
695.153	58.25
695.477	58.21
695.802	58.28
696.126	58.3
696.451	58.32
696.775	58.44
697.099	58.56
697.423	58.61
697.748	58.49
698.072	58.63
698.396	58.68
698.72	58.72
699.044	58.79
699.368	58.84
699.692	58.93
700.016	59.11
700.34	59.16
700.664	59.2
700.987	59.18
701.311	59.31
701.635	59.21
701.958	59.27
702.282	59.25
702.606	59.35
702.929	59.52
703.252	59.48
703.576	59.55
703.899	59.53
704.223	59.64
704.546	59.63
704.869	59.6
705.192	59.69
705.515	59.76
705.838	59.97
706.161	59.82
706.484	59.68
706.807	59.7
707.13	59.63
707.453	59.74
707.776	59.54
708.099	59.55
708.421	59.66
708.744	59.78
709.067	59.85
709.389	59.67
709.712	59.89
710.034	59.92
710.357	59.98
710.679	59.94
711.001	59.95
711.324	60.09
711.646	60.19
711.968	60.22
712.29	60.23
712.612	60.23
712.935	60.3
713.257	60.18
713.579	60.24
713.9	60.3
714.222	60.34
714.544	60.45
714.866	60.3
715.188	60.32
715.509	60.32
715.831	60.37
716.153	60.31
716.474	60.42
716.796	60.46
717.117	60.57
717.439	60.44
717.76	60.52
718.081	60.34
718.403	60.43
718.724	60.39
719.045	60.38
719.366	60.33
719.687	60.49
720.009	60.49
720.33	60.75
720.651	60.71
720.971	60.76
721.292	60.79
721.613	60.82
721.934	60.83
722.255	61.01
722.575	61.01
722.896	60.96
723.217	60.77
723.537	60.87
723.858	60.63
724.178	60.67
724.499	60.83
724.819	60.9
725.139	61
725.46	61.04
725.78	61.01
726.1	60.92
726.42	61.06
726.74	61.16
727.06	61.15
727.38	61.21
727.7	61.15
728.02	61.33
728.34	61.32
728.66	61.24
728.98	61.38
729.299	61.37
729.619	61.66
729.939	61.62
730.258	61.61
730.578	61.68
730.897	61.83
731.217	61.77
731.536	61.7
731.856	61.78
732.175	61.86
732.494	61.87
732.814	62.04
733.133	61.89
733.452	61.99
733.771	62.04
734.09	61.92
734.409	61.81
734.728	61.85
735.047	61.82
735.366	61.77
735.684	61.8
736.003	61.84
736.322	61.72
736.641	61.83
736.959	61.72
737.278	61.87
737.596	61.84
737.915	62
738.233	62.1
738.552	62.18
738.87	62.27
739.188	62.47
739.507	62.58
739.825	62.65
740.143	62.52
740.461	62.58
740.779	62.56
741.097	62.7
741.415	62.63
741.733	62.53
742.051	62.52
742.369	62.48
742.687	62.35
743.004	62.38
743.322	62.36
743.64	62.49
743.957	62.56
744.275	62.38
744.593	62.52
744.91	62.66
745.227	62.84
745.545	62.89
745.862	62.82
746.179	62.85
746.497	62.71
746.814	62.82
747.131	62.84
747.448	62.86
747.765	63.08
748.082	62.92
748.399	62.9
748.716	62.99
749.033	62.83
749.35	62.93
749.667	63.13
749.983	63.11
750.3	63.24
750.617	63.26
750.933	63.4
751.25	63.34
751.566	63.41
751.883	63.49
752.199	63.4
752.516	63.43
752.832	63.38
753.148	63.35
753.464	63.38
753.781	63.27
754.097	63.3
754.413	63.15
754.729	63.25
755.045	63.37
755.361	63.29
755.677	63.35
755.992	63.37
756.308	63.38
756.624	63.17
756.94	63.23
757.255	63.28
757.571	63.32
757.887	63.5
758.202	63.37
758.518	63.34
758.833	63.41
759.148	63.44
759.464	63.52
759.779	63.7
760.094	63.8
760.41	63.93
760.725	63.95
761.04	63.86
761.355	63.61
761.67	63.88
761.985	63.93
762.3	63.86
762.615	63.84
762.93	63.73
763.244	63.66
763.559	63.51
763.874	63.51
764.188	63.55
764.503	63.65
764.818	63.68
765.132	63.52
765.447	63.32
765.761	63.28
766.075	63.24
766.39	63.31
766.704	63.23
767.018	63.53
767.332	63.49
767.646	63.38
767.961	63.64
768.275	63.78
768.589	63.94
768.903	64.16
769.216	64.25
769.53	64.42
769.844	64.5
770.158	64.63
770.472	64.7
770.785	64.41
771.099	64.76
771.413	64.44
771.726	64.43
772.04	64.26
772.353	64.15
772.666	64.24
772.98	64.14
773.293	64.25
773.606	64.24
773.919	64.05
774.233	64.64
774.546	64.34
774.859	64.61
775.172	64.55
775.485	64.73
775.798	64.85
776.111	64.8
776.423	64.94
776.736	64.93
777.049	64.88
777.362	65.2
777.674	65.09
777.987	65.18
778.299	64.95
778.612	65.34
778.924	65.31
779.237	65.35
779.549	65.15
779.862	64.94
780.174	64.68
780.486	64.75
780.798	64.47
781.11	64.21
781.422	64.11
781.735	64.3
782.046	64.35
782.358	64.39
782.67	64.27
782.982	64.59
783.294	64.71
783.606	65
783.917	64.89
784.229	65.09
784.541	65.19
784.852	65.32
785.164	65.34
785.475	65.22
785.787	65.4
786.098	65.53
786.41	65.33
786.721	65.42
787.032	65.27
787.343	65.46
787.654	65.48
787.966	65.54
788.277	65.83
788.588	65.8
788.899	65.71
789.209	65.85
789.52	65.87
789.831	66.18
790.142	66.2
790.453	66.5
790.763	66.38
791.074	66.24
791.385	66.08
791.695	65.73
792.006	65.72
792.316	66
792.626	65.93
792.937	66.21
793.247	66.24
793.557	66.29
793.868	66.25
794.178	66.46
794.488	66.79
794.798	67
795.108	67.29
795.418	67.53
795.728	67.64
796.038	67.31
796.348	67.29
796.657	67.41
796.967	67.27
797.277	66.94
797.587	67.05
797.896	66.74
798.206	66.7
798.515	66.46
798.825	66.17
799.134	65.89
799.444	66.09
799.753	65.91
800.062	65.85
800.371	66.35
800.681	66.87
800.99	66.84
801.299	67.1
801.608	67.23
801.917	67.42
802.226	67.87
802.535	67.97
802.844	67.84
803.152	67.92
803.461	67.92
803.77	67.66
804.078	67.93
804.387	67.7
804.696	67.83
805.004	67.82
805.313	68.15
805.621	67.8
805.93	67.54
806.238	67.55
806.546	67.5
806.854	67.34
807.163	67.03
807.471	66.46
807.779	66.54
808.087	66.31
808.395	66.37
808.703	66.12
809.011	66.37
809.319	66.41
809.626	66.51
809.934	66.33
810.242	66.45
810.55	66.65
810.857	66.8
811.165	66.73
811.472	66.95
811.78	66.61
812.087	66.52
812.395	66.55
812.702	66.57
813.009	66.33
813.317	66.09
813.624	66.08
813.931	66.39
814.238	66.42
814.545	66.74
814.852	66.39
815.159	66.9
815.466	67.1
815.773	66.8
816.08	67.35
816.387	67.54
816.693	67.69
817	67.65
817.307	67.64
817.613	67.35
817.92	67.65
818.226	68
818.533	68.21
818.839	68.23
819.146	68.75
819.452	68.75
819.758	69.15
820.064	69.54
820.371	69.71
820.677	69.54
820.983	69.81
821.289	69.57
821.595	69.79
821.901	69.27
822.207	68.75
822.512	68.57
822.818	67.88
823.124	68.05
823.43	68.12
823.735	68.66
824.041	69.04
824.347	68.85
824.652	68.66
824.957	68.74
825.263	68.97
825.568	69.29
825.874	69.12
826.179	69.67
826.484	69.05
826.789	69.26
827.094	68.67
827.399	68.3
827.705	68.98
828.01	69.1
828.314	68.87
828.619	68.83
828.924	69.21
829.229	69.31
829.534	69.88
829.838	70.61
830.143	70.58
830.448	70.57
830.752	70.5
831.057	70.12
831.361	69.8
831.666	69.19
831.97	69.19
832.274	68.99
832.579	68.47
832.883	67.79
833.187	67.17
833.491	66.95
833.795	67.34
834.099	67.51
834.403	67.52
834.707	68.24
835.011	68.8
835.315	68.7
835.619	68.68
835.923	68.73
836.226	68.61
836.53	69.11
836.834	68.89
837.137	68.28
837.441	68.28
837.744	68.71
838.048	68.51
838.351	68.32
838.654	68.03
838.958	68.11
839.261	68.68
839.564	69.11
839.867	68.35
840.17	68.63
840.473	69.12
840.776	69.05
841.079	68.04
841.382	67.42
841.685	67.34
841.988	68.02
842.291	67.27
842.593	66.73
842.896	66.4
843.199	66.73
843.501	66.65
843.804	66.31
844.106	66.65
844.409	68.04
844.711	69.1
845.013	68.8
845.316	68.89
845.618	69.68
845.92	70.08
846.222	69.8
846.524	69.32
846.826	69.58
847.128	69.9
847.43	69.52
847.732	68.27
848.034	67.12
848.336	67.71
848.638	66.33
848.939	66.12
849.241	66.09
849.543	65.96
849.844	66.61
850.146	66.09
850.447	65.29
850.749	65.46
851.05	66.49
851.351	66.78
851.653	67.28
851.954	68.01
852.255	68.93
852.556	69.22
852.857	70.27
853.158	69.8
853.459	69.62
853.76	70.7
854.061	70.11
854.362	69.51
854.663	70.05
854.964	68.87
855.264	69.78
855.565	68.82
855.866	68.48
856.166	67.81
856.467	68.17
856.767	68.84
857.068	68.22
857.368	68.47
857.668	69.22
857.969	68.41
858.269	68.87
858.569	68.45
858.869	68.92
859.169	68.94
859.469	68.31
859.769	68.39
860.069	67.12
860.369	65.81
860.669	66.27
860.969	65.86
861.269	67.07
861.568	67.31
861.868	66.87
862.168	66.35
862.467	67.28
862.767	68.03
863.066	67.96
863.366	69.78
863.665	71.93
863.964	70.74
864.264	70.11
864.563	69.92
864.862	69.42
865.161	70.11
865.46	70.15
865.759	69.27
866.058	70
866.357	70.44
866.656	69.08
866.955	70.2
867.254	70.83
867.552	71.38
867.851	71.03
868.15	70.51
868.448	69.43
868.747	70.08
869.045	70.61
869.344	70.86
869.642	70.14
869.941	71.04
870.239	69.65
870.537	69.23
870.836	69.45
871.134	68.73
871.432	69.63
871.73	70.51
872.028	69.63
872.326	69.51
872.624	68.15
872.922	68.37
873.22	67.52
873.517	65.87
873.815	65.23
874.113	63.69
874.411	63.75
874.708	64.14
875.006	63.98
875.303	63.31
875.601	63.89
875.898	62.84
876.195	62.72
876.493	63.61
876.79	63.61
877.087	64.4
877.384	64.68
877.682	65.27
877.979	64.14
878.276	64.15
878.573	64.86
878.87	63.15
879.166	64.7
879.463	64.31
