Data from glaucus_ven_HW_orange_left_8_Reflection__0__136.txt Node

Date: Sun Dec 11 16:30:48 EST 2022
User: abbyrobinson
Spectrometer: USB2G8287
Scans to average: 10
Trigger mode: 4
Integration Time (sec): 1.000000E-1
Electric dark correction enabled: true
Boxcar width: 5
XAxis mode: Wavelengths
Number of Pixels in Spectrum: 2048
>>>>>Begin Spectral Data<<<<<
177.272	473.08
177.658	221.97
178.044	-802.7
178.43	-471.43
178.816	-509.43
179.203	-421.52
179.589	45
179.975	74.79
180.361	133.22
180.747	663.93
181.133	-861.7
181.519	-509.64
181.904	221.97
182.29	-1845
182.676	490.91
183.062	1038.46
183.447	9642.86
183.833	8485.71
184.219	-1160.53
184.604	-13050
184.99	-163.64
185.375	-46.85
185.761	-23.68
186.146	-14.46
186.531	5.66
186.917	5.34
187.302	10.03
187.687	15.23
188.073	18.6
188.458	12.59
188.843	9
189.228	6.5
189.613	5.17
189.998	1.63
190.383	2.79
190.768	-2.88
191.153	-0.23
191.538	-2.55
191.923	-6.35
192.307	-5.84
192.692	-3.54
193.077	-4.42
193.461	-7.9
193.846	-5.07
194.231	-6.63
194.615	-12.46
195	-7.34
195.384	-2.36
195.769	6.34
196.153	7.78
196.537	6.86
196.922	9.06
197.306	7.12
197.69	11.59
198.074	12.13
198.458	15.3
198.843	22.08
199.227	22.84
199.611	18.89
199.995	16.09
200.379	16.69
200.763	16.66
201.146	20.67
201.53	24.07
201.914	25.27
202.298	22.78
202.681	18.98
203.065	18.61
203.449	10.04
203.832	9.62
204.216	6.43
204.599	19.39
204.983	18.64
205.366	15.42
205.75	17.87
206.133	15.41
206.516	13.3
206.9	15.71
207.283	11.42
207.666	8.63
208.049	10.46
208.432	12.54
208.815	-4.96
209.198	-5.99
209.581	-6.78
209.964	-8.47
210.347	-6.04
210.73	-0.17
211.113	3
211.496	4.67
211.879	9.33
212.261	10.88
212.644	10.56
213.027	8.4
213.409	7.66
213.792	10.2
214.174	9.58
214.557	6.7
214.939	4.63
215.322	2.82
215.704	1.87
216.086	2.17
216.469	0.15
216.851	-2.04
217.233	-1.4
217.615	-1.37
217.997	-1.21
218.379	-1.6
218.761	-1.28
219.143	-4.46
219.525	-7.76
219.907	-6.86
220.289	-4.71
220.671	-5.63
221.053	-7.5
221.435	-3.13
221.816	0.13
222.198	-0.91
222.58	-1.17
222.961	1.65
223.343	1.47
223.724	1.66
224.106	1.39
224.487	1.24
224.869	4.28
225.25	6.91
225.631	7.09
226.013	4.8
226.394	3.93
226.775	4.65
227.156	3.14
227.537	7.44
227.919	9.04
228.3	8.58
228.681	6.79
229.062	5.63
229.442	4.73
229.823	3.97
230.204	5.55
230.585	6.11
230.966	6.4
231.347	6.5
231.727	4.84
232.108	4.45
232.488	4.39
232.869	5.62
233.25	5.37
233.63	5.92
234.01	6.09
234.391	6.03
234.771	5.89
235.152	5.54
235.532	5.94
235.912	6.37
236.292	6.7
236.672	7.23
237.053	7.3
237.433	7.47
237.813	7.75
238.193	7.83
238.573	7.66
238.953	7.65
239.333	7.95
239.712	8.1
240.092	7.97
240.472	7.96
240.852	7.79
241.231	7.51
241.611	7.15
241.991	7.06
242.37	7.16
242.75	7.33
243.129	7.34
243.509	7.33
243.888	7.17
244.267	7.18
244.647	7.33
245.026	7.43
245.405	7.61
245.784	7.81
246.164	7.7
246.543	7.58
246.922	7.39
247.301	7.42
247.68	7.52
248.059	7.63
248.438	7.66
248.817	7.63
249.195	7.61
249.574	7.56
249.953	7.55
250.332	7.65
250.71	7.75
251.089	7.9
251.468	7.95
251.846	7.91
252.225	7.9
252.603	7.99
252.982	7.93
253.36	7.94
253.738	7.95
254.117	7.96
254.495	7.91
254.873	7.9
255.251	7.88
255.63	7.84
256.008	7.76
256.386	7.73
256.764	7.62
257.142	7.69
257.52	7.67
257.898	7.73
258.276	7.73
258.653	7.73
259.031	7.73
259.409	7.74
259.787	7.77
260.164	7.84
260.542	7.89
260.92	7.95
261.297	7.9
261.675	7.92
262.052	7.91
262.43	7.94
262.807	7.97
263.184	7.96
263.562	8.02
263.939	8.08
264.316	8.09
264.693	8.06
265.07	8.07
265.448	8.14
265.825	8.14
266.202	8.15
266.579	8.13
266.956	8.14
267.333	8.18
267.709	8.12
268.086	8.07
268.463	7.99
268.84	7.97
269.216	7.94
269.593	7.88
269.97	7.83
270.346	7.73
270.723	7.76
271.099	7.78
271.476	7.73
271.852	7.68
272.229	7.6
272.605	7.7
272.981	7.7
273.358	7.75
273.734	7.78
274.11	7.79
274.486	7.85
274.862	7.77
275.238	7.69
275.614	7.69
275.99	7.72
276.366	7.79
276.742	7.77
277.118	7.73
277.494	7.66
277.87	7.67
278.245	7.68
278.621	7.65
278.997	7.65
279.372	7.63
279.748	7.59
280.123	7.54
280.499	7.46
280.874	7.36
281.25	7.39
281.625	7.32
282	7.2
282.376	7.19
282.751	7.15
283.126	7.14
283.501	7.13
283.876	7.12
284.252	7.09
284.627	7.06
285.002	7.09
285.377	7
285.751	7.01
286.126	7.05
286.501	7.01
286.876	7
287.251	6.97
287.625	6.97
288	6.94
288.375	6.95
288.749	6.95
289.124	6.98
289.498	6.99
289.873	6.98
290.247	6.92
290.622	6.89
290.996	6.85
291.37	6.81
291.745	6.77
292.119	6.77
292.493	6.7
292.867	6.77
293.241	6.69
293.616	6.63
293.99	6.6
294.364	6.56
294.737	6.52
295.111	6.5
295.485	6.49
295.859	6.39
296.233	6.33
296.607	6.35
296.98	6.24
297.354	6.14
297.728	6.21
298.101	6.15
298.475	6.08
298.848	5.97
299.222	5.91
299.595	5.89
299.968	5.85
300.342	5.81
300.715	5.75
301.088	5.73
301.462	5.7
301.835	5.62
302.208	5.64
302.581	5.63
302.954	5.62
303.327	5.63
303.7	5.57
304.073	5.55
304.446	5.55
304.819	5.54
305.192	5.44
305.564	5.39
305.937	5.35
306.31	5.22
306.682	5.21
307.055	5.22
307.428	5.23
307.8	5.18
308.173	5.12
308.545	5.08
308.917	5.02
309.29	5.01
309.662	4.98
310.034	4.95
310.407	4.97
310.779	4.9
311.151	4.89
311.523	4.82
311.895	4.83
312.267	4.87
312.639	4.8
313.011	4.77
313.383	4.76
313.755	4.77
314.127	4.72
314.498	4.68
314.87	4.71
315.242	4.63
315.614	4.65
315.985	4.59
316.357	4.48
316.728	4.47
317.1	4.49
317.471	4.47
317.843	4.46
318.214	4.46
318.585	4.46
318.957	4.45
319.328	4.44
319.699	4.35
320.07	4.3
320.441	4.32
320.813	4.31
321.184	4.22
321.555	4.26
321.926	4.21
322.297	4.17
322.667	4.12
323.038	4.13
323.409	4.12
323.78	4.15
324.151	4.18
324.521	4.23
324.892	4.17
325.262	4.17
325.633	4.13
326.004	4.19
326.374	4.21
326.744	4.25
327.115	4.23
327.485	4.24
327.855	4.25
328.226	4.21
328.596	4.13
328.966	4.13
329.336	4.14
329.706	4.09
330.076	4.08
330.447	4.03
330.816	3.98
331.186	3.94
331.556	3.86
331.926	3.85
332.296	3.86
332.666	3.94
333.036	3.96
333.405	3.96
333.775	3.95
334.144	3.91
334.514	3.93
334.884	3.88
335.253	3.85
335.623	3.87
335.992	3.8
336.361	3.75
336.731	3.61
337.1	3.54
337.469	3.53
337.838	3.57
338.208	3.57
338.577	3.54
338.946	3.53
339.315	3.5
339.684	3.52
340.053	3.49
340.422	3.54
340.79	3.65
341.159	3.7
341.528	3.66
341.897	3.6
342.266	3.59
342.634	3.5
343.003	3.56
343.371	3.6
343.74	3.52
344.108	3.56
344.477	3.56
344.845	3.45
345.214	3.43
345.582	3.41
345.95	3.42
346.319	3.39
346.687	3.45
347.055	3.4
347.423	3.34
347.791	3.34
348.159	3.32
348.527	3.28
348.895	3.31
349.263	3.26
349.631	3.27
349.999	3.21
350.367	3.2
350.734	3.14
351.102	3.12
351.47	3.15
351.837	3.17
352.205	3.17
352.573	3.16
352.94	3.1
353.308	3.07
353.675	3.08
354.042	3.14
354.41	3.1
354.777	3.14
355.144	3.16
355.511	3.15
355.879	3.05
356.246	3.01
356.613	2.99
356.98	2.97
357.347	3.03
357.714	3
358.081	2.97
358.448	3.01
358.815	2.97
359.181	2.99
359.548	3.01
359.915	3.04
360.282	3.06
360.648	3.07
361.015	3.13
361.381	3.11
361.748	3.08
362.114	3.04
362.481	3
362.847	3.01
363.214	2.97
363.58	2.9
363.946	2.84
364.312	2.82
364.678	2.73
365.045	2.72
365.411	2.66
365.777	2.72
366.143	2.72
366.509	2.71
366.875	2.7
367.241	2.68
367.606	2.74
367.972	2.81
368.338	2.8
368.704	2.83
369.069	2.8
369.435	2.77
369.801	2.69
370.166	2.67
370.532	2.65
370.897	2.63
371.263	2.62
371.628	2.57
371.993	2.55
372.359	2.53
372.724	2.53
373.089	2.57
373.454	2.59
373.82	2.59
374.185	2.57
374.55	2.59
374.915	2.6
375.28	2.59
375.645	2.59
376.01	2.61
376.374	2.65
376.739	2.62
377.104	2.57
377.469	2.55
377.833	2.54
378.198	2.54
378.563	2.54
378.927	2.56
379.292	2.52
379.656	2.52
380.021	2.53
380.385	2.47
380.749	2.51
381.114	2.56
381.478	2.61
381.842	2.63
382.206	2.62
382.571	2.59
382.935	2.55
383.299	2.57
383.663	2.58
384.027	2.53
384.391	2.59
384.755	2.57
385.118	2.53
385.482	2.49
385.846	2.48
386.21	2.5
386.573	2.53
386.937	2.57
387.301	2.62
387.664	2.65
388.028	2.68
388.391	2.66
388.755	2.63
389.118	2.63
389.481	2.65
389.845	2.64
390.208	2.63
390.571	2.61
390.934	2.57
391.298	2.56
391.661	2.49
392.024	2.49
392.387	2.48
392.75	2.5
393.113	2.5
393.476	2.47
393.838	2.51
394.201	2.51
394.564	2.54
394.927	2.5
395.289	2.48
395.652	2.48
396.015	2.45
396.377	2.48
396.74	2.45
397.102	2.42
397.465	2.46
397.827	2.41
398.189	2.38
398.552	2.39
398.914	2.4
399.276	2.38
399.638	2.41
400	2.43
400.363	2.41
400.725	2.46
401.087	2.49
401.449	2.49
401.81	2.5
402.172	2.51
402.534	2.5
402.896	2.51
403.258	2.52
403.619	2.49
403.981	2.48
404.343	2.47
404.704	2.46
405.066	2.47
405.427	2.42
405.789	2.42
406.15	2.42
406.512	2.42
406.873	2.43
407.234	2.45
407.596	2.47
407.957	2.45
408.318	2.46
408.679	2.39
409.04	2.36
409.401	2.36
409.762	2.39
410.123	2.41
410.484	2.45
410.845	2.39
411.206	2.37
411.567	2.38
411.927	2.4
412.288	2.39
412.649	2.44
413.009	2.45
413.37	2.48
413.731	2.47
414.091	2.45
414.452	2.4
414.812	2.38
415.172	2.38
415.533	2.35
415.893	2.34
416.253	2.33
416.613	2.32
416.974	2.3
417.334	2.3
417.694	2.3
418.054	2.33
418.414	2.37
418.774	2.43
419.134	2.46
419.494	2.49
419.853	2.49
420.213	2.49
420.573	2.5
420.933	2.49
421.292	2.47
421.652	2.46
422.011	2.45
422.371	2.4
422.73	2.37
423.09	2.34
423.449	2.33
423.809	2.32
424.168	2.35
424.527	2.35
424.887	2.38
425.246	2.41
425.605	2.45
425.964	2.47
426.323	2.52
426.682	2.55
427.041	2.59
427.4	2.59
427.759	2.55
428.118	2.52
428.477	2.47
428.835	2.5
429.194	2.47
429.553	2.41
429.911	2.41
430.27	2.43
430.629	2.37
430.987	2.34
431.346	2.35
431.704	2.42
432.062	2.44
432.421	2.49
432.779	2.47
433.137	2.51
433.496	2.49
433.854	2.49
434.212	2.47
434.57	2.5
434.928	2.55
435.286	2.59
435.644	2.6
436.002	2.6
436.36	2.53
436.718	2.54
437.075	2.54
437.433	2.57
437.791	2.56
438.149	2.56
438.506	2.56
438.864	2.53
439.221	2.5
439.579	2.45
439.936	2.44
440.294	2.5
440.651	2.52
441.009	2.51
441.366	2.58
441.723	2.6
442.08	2.59
442.437	2.63
442.795	2.62
443.152	2.62
443.509	2.61
443.866	2.7
444.223	2.73
444.58	2.74
444.936	2.74
445.293	2.72
445.65	2.72
446.007	2.74
446.363	2.71
446.72	2.76
447.077	2.77
447.433	2.8
447.79	2.73
448.146	2.76
448.503	2.75
448.859	2.8
449.215	2.81
449.572	2.82
449.928	2.86
450.284	2.89
450.641	2.87
450.997	2.87
451.353	2.88
451.709	2.95
452.065	2.94
452.421	2.98
452.777	2.97
453.133	2.96
453.488	2.98
453.844	2.97
454.2	2.99
454.556	3
454.911	3.06
455.267	3.11
455.623	3.15
455.978	3.16
456.334	3.15
456.689	3.15
457.045	3.19
457.4	3.17
457.755	3.2
458.111	3.24
458.466	3.25
458.821	3.23
459.176	3.24
459.531	3.19
459.886	3.18
460.242	3.2
460.597	3.24
460.951	3.23
461.306	3.25
461.661	3.26
462.016	3.23
462.371	3.23
462.726	3.27
463.08	3.29
463.435	3.32
463.79	3.32
464.144	3.29
464.499	3.28
464.853	3.32
465.208	3.35
465.562	3.34
465.916	3.37
466.271	3.4
466.625	3.41
466.979	3.4
467.333	3.44
467.688	3.51
468.042	3.54
468.396	3.56
468.75	3.59
469.104	3.61
469.458	3.62
469.811	3.63
470.165	3.68
470.519	3.72
470.873	3.74
471.227	3.75
471.58	3.75
471.934	3.82
472.287	3.83
472.641	3.8
472.995	3.79
473.348	3.87
473.701	3.94
474.055	3.92
474.408	3.89
474.761	3.9
475.115	3.88
475.468	3.92
475.821	3.95
476.174	3.98
476.527	4.02
476.88	4.07
477.233	4.04
477.586	4.03
477.939	4.08
478.292	4.11
478.645	4.09
478.998	4.14
479.35	4.17
479.703	4.16
480.056	4.2
480.408	4.25
480.761	4.29
481.113	4.3
481.466	4.35
481.818	4.36
482.171	4.38
482.523	4.43
482.875	4.48
483.228	4.48
483.58	4.55
483.932	4.56
484.284	4.55
484.636	4.54
484.988	4.59
485.34	4.59
485.692	4.59
486.044	4.65
486.396	4.68
486.748	4.67
487.1	4.69
487.451	4.68
487.803	4.69
488.155	4.75
488.506	4.79
488.858	4.82
489.209	4.82
489.561	4.86
489.912	4.88
490.264	4.91
490.615	4.96
490.966	5.01
491.318	5.02
491.669	5.04
492.02	5.06
492.371	5.07
492.722	5.1
493.073	5.14
493.424	5.18
493.775	5.19
494.126	5.19
494.477	5.23
494.828	5.23
495.179	5.3
495.53	5.36
495.88	5.37
496.231	5.4
496.582	5.44
496.932	5.46
497.283	5.49
497.633	5.56
497.984	5.63
498.334	5.66
498.684	5.71
499.035	5.73
499.385	5.75
499.735	5.81
500.086	5.88
500.436	5.92
500.786	5.94
501.136	5.97
501.486	6
501.836	6.04
502.186	6.1
502.536	6.12
502.886	6.15
503.235	6.18
503.585	6.23
503.935	6.23
504.285	6.28
504.634	6.41
504.984	6.45
505.333	6.47
505.683	6.49
506.032	6.52
506.382	6.58
506.731	6.61
507.08	6.69
507.43	6.73
507.779	6.79
508.128	6.85
508.477	6.84
508.826	6.93
509.176	7.03
509.525	7.14
509.874	7.2
510.222	7.3
510.571	7.35
510.92	7.38
511.269	7.46
511.618	7.54
511.967	7.59
512.315	7.65
512.664	7.71
513.012	7.7
513.361	7.73
513.71	7.8
514.058	7.82
514.406	7.92
514.755	7.97
515.103	7.99
515.451	8.06
515.8	8.13
516.148	8.17
516.496	8.21
516.844	8.31
517.192	8.33
517.54	8.37
517.888	8.43
518.236	8.5
518.584	8.61
518.932	8.68
519.28	8.76
519.628	8.85
519.975	8.93
520.323	9.05
520.671	9.12
521.018	9.21
521.366	9.27
521.713	9.32
522.061	9.38
522.408	9.43
522.756	9.54
523.103	9.59
523.45	9.65
523.798	9.75
524.145	9.77
524.492	9.85
524.839	9.95
525.186	10.08
525.533	10.22
525.88	10.32
526.227	10.38
526.574	10.45
526.921	10.51
527.268	10.59
527.615	10.63
527.961	10.74
528.308	10.82
528.655	10.88
529.001	10.92
529.348	10.94
529.694	11
530.041	11.12
530.387	11.15
530.734	11.27
531.08	11.34
531.426	11.42
531.773	11.51
532.119	11.59
532.465	11.69
532.811	11.83
533.157	11.95
533.503	12.06
533.849	12.09
534.195	12.19
534.541	12.25
534.887	12.31
535.233	12.47
535.579	12.6
535.924	12.67
536.27	12.78
536.616	12.84
536.961	12.92
537.307	13
537.652	13.14
537.998	13.24
538.343	13.37
538.689	13.45
539.034	13.49
539.379	13.54
539.725	13.63
540.07	13.67
540.415	13.79
540.76	13.91
541.105	14
541.45	14.08
541.795	14.19
542.14	14.22
542.485	14.33
542.83	14.43
543.175	14.52
543.519	14.63
543.864	14.75
544.209	14.86
544.554	14.92
544.898	14.98
545.243	15.05
545.587	15.16
545.932	15.3
546.276	15.39
546.621	15.5
546.965	15.6
547.309	15.67
547.653	15.74
547.998	15.78
548.342	15.84
548.686	15.96
549.03	16.07
549.374	16.16
549.718	16.25
550.062	16.39
550.406	16.45
550.75	16.57
551.094	16.68
551.437	16.79
551.781	16.92
552.125	17.11
552.468	17.23
552.812	17.35
553.156	17.44
553.499	17.54
553.843	17.61
554.186	17.71
554.529	17.78
554.873	17.86
555.216	17.94
555.559	18.06
555.902	18.13
556.246	18.22
556.589	18.33
556.932	18.42
557.275	18.51
557.618	18.62
557.961	18.76
558.304	18.84
558.646	18.96
558.989	19.09
559.332	19.13
559.675	19.21
560.017	19.28
560.36	19.31
560.703	19.43
561.045	19.52
561.388	19.6
561.73	19.67
562.073	19.8
562.415	19.91
562.757	20.02
563.1	20.12
563.442	20.24
563.784	20.33
564.126	20.49
564.468	20.58
564.81	20.72
565.152	20.85
565.494	20.9
565.836	20.98
566.178	21.08
566.52	21.19
566.862	21.33
567.204	21.38
567.545	21.48
567.887	21.55
568.229	21.67
568.57	21.78
568.912	21.84
569.253	21.98
569.595	22.07
569.936	22.15
570.277	22.25
570.619	22.32
570.96	22.45
571.301	22.6
571.642	22.72
571.984	22.82
572.325	22.87
572.666	22.94
573.007	23.08
573.348	23.21
573.689	23.34
574.03	23.42
574.37	23.57
574.711	23.66
575.052	23.74
575.393	23.82
575.733	23.91
576.074	24.02
576.414	24.16
576.755	24.23
577.095	24.33
577.436	24.44
577.776	24.54
578.117	24.61
578.457	24.73
578.797	24.83
579.137	24.96
579.478	25.04
579.818	25.15
580.158	25.27
580.498	25.37
580.838	25.47
581.178	25.55
581.518	25.67
581.858	25.78
582.197	25.88
582.537	25.99
582.877	26.07
583.217	26.21
583.556	26.31
583.896	26.39
584.235	26.49
584.575	26.59
584.914	26.69
585.254	26.77
585.593	26.86
585.933	26.94
586.272	27.01
586.611	27.09
586.95	27.14
587.289	27.25
587.629	27.36
587.968	27.47
588.307	27.59
588.646	27.69
588.985	27.82
589.323	27.91
589.662	28.01
590.001	28.12
590.34	28.22
590.679	28.33
591.017	28.4
591.356	28.51
591.695	28.59
592.033	28.68
592.372	28.79
592.71	28.85
593.048	28.95
593.387	29.07
593.725	29.16
594.063	29.26
594.402	29.4
594.74	29.52
595.078	29.64
595.416	29.78
595.754	29.9
596.092	30.01
596.43	30.16
596.768	30.27
597.106	30.4
597.444	30.5
597.781	30.63
598.119	30.75
598.457	30.86
598.795	30.95
599.132	31.05
599.47	31.13
599.807	31.23
600.145	31.33
600.482	31.41
600.82	31.51
601.157	31.67
601.494	31.74
601.831	31.83
602.169	31.94
602.506	31.98
602.843	32.07
603.18	32.19
603.517	32.31
603.854	32.41
604.191	32.49
604.528	32.6
604.865	32.69
605.202	32.84
605.538	32.93
605.875	32.98
606.212	33.12
606.548	33.19
606.885	33.28
607.222	33.35
607.558	33.48
607.895	33.63
608.231	33.69
608.567	33.76
608.904	33.84
609.24	33.95
609.576	34.09
609.912	34.23
610.248	34.36
610.585	34.45
610.921	34.57
611.257	34.67
611.593	34.81
611.929	34.96
612.264	35.09
612.6	35.19
612.936	35.27
613.272	35.34
613.608	35.4
613.943	35.53
614.279	35.61
614.614	35.68
614.95	35.71
615.285	35.78
615.621	35.84
615.956	35.96
616.292	36.05
616.627	36.18
616.962	36.31
617.297	36.44
617.632	36.47
617.968	36.54
618.303	36.66
618.638	36.81
618.973	36.88
619.308	37.01
619.643	37.07
619.977	37.25
620.312	37.33
620.647	37.43
620.982	37.48
621.316	37.63
621.651	37.82
621.986	37.92
622.32	38.02
622.655	38.16
622.989	38.22
623.324	38.32
623.658	38.35
623.992	38.42
624.326	38.53
624.661	38.65
624.995	38.74
625.329	38.81
625.663	38.91
625.997	38.98
626.331	39.05
626.665	39.2
626.999	39.32
627.333	39.4
627.667	39.56
628.001	39.68
628.334	39.76
628.668	39.85
629.002	39.98
629.335	40.14
629.669	40.26
630.002	40.35
630.336	40.42
630.669	40.56
631.003	40.71
631.336	40.77
631.669	40.86
632.003	41.03
632.336	41.13
632.669	41.23
633.002	41.28
633.335	41.38
633.668	41.49
634.001	41.68
634.334	41.73
634.667	41.84
635	41.91
635.333	41.98
635.665	42.03
635.998	42.16
636.331	42.26
636.663	42.34
636.996	42.43
637.328	42.51
637.661	42.56
637.993	42.65
638.326	42.69
638.658	42.85
638.99	42.98
639.323	43.07
639.655	43.18
639.987	43.25
640.319	43.35
640.651	43.42
640.983	43.61
641.315	43.64
641.647	43.74
641.979	43.86
642.311	43.98
642.643	44.03
642.975	44.13
643.306	44.16
643.638	44.31
643.97	44.39
644.301	44.53
644.633	44.6
644.964	44.71
645.296	44.78
645.627	44.87
645.959	44.93
646.29	45.09
646.621	45.22
646.952	45.37
647.284	45.41
647.615	45.52
647.946	45.63
648.277	45.69
648.608	45.75
648.939	45.88
649.27	45.91
649.601	46.05
649.931	46.09
650.262	46.15
650.593	46.27
650.924	46.38
651.254	46.53
651.585	46.64
651.915	46.8
652.246	47.06
652.576	47.21
652.907	47.34
653.237	47.44
653.568	47.56
653.898	47.71
654.228	47.84
654.558	47.96
654.888	48.05
655.219	48.25
655.549	48.34
655.879	48.45
656.209	48.62
656.539	48.92
656.868	49.17
657.198	49.42
657.528	49.62
657.858	49.76
658.188	49.93
658.517	50.09
658.847	50.19
659.176	50.37
659.506	50.47
659.835	50.63
660.165	50.78
660.494	50.88
660.824	50.92
661.153	50.98
661.482	51.06
661.811	51.1
662.14	51.12
662.47	51.15
662.799	51.11
663.128	51.21
663.457	51.19
663.786	51.11
664.114	51.09
664.443	51.15
664.772	51.19
665.101	51.19
665.43	51.25
665.758	51.33
666.087	51.42
666.415	51.5
666.744	51.51
667.072	51.63
667.401	51.68
667.729	51.81
668.058	51.94
668.386	51.97
668.714	52.17
669.042	52.25
669.371	52.31
669.699	52.49
670.027	52.61
670.355	52.69
670.683	52.74
671.011	52.97
671.339	53.14
671.666	53.25
671.994	53.36
672.322	53.36
672.65	53.43
672.977	53.54
673.305	53.64
673.633	53.8
673.96	54
674.288	54.08
674.615	54.11
674.943	54.19
675.27	54.22
675.597	54.37
675.924	54.44
676.252	54.54
676.579	54.64
676.906	54.63
677.233	54.65
677.56	54.68
677.887	54.78
678.214	54.82
678.541	54.89
678.868	54.96
679.195	55
679.521	55.14
679.848	55.23
680.175	55.23
680.501	55.38
680.828	55.53
681.154	55.65
681.481	55.7
681.807	55.77
682.134	55.87
682.46	56
682.787	56.17
683.113	56.17
683.439	56.28
683.765	56.54
684.091	56.69
684.417	56.78
684.743	56.88
685.069	56.99
685.395	57.15
685.721	57.2
686.047	57.32
686.373	57.28
686.699	57.46
687.024	57.47
687.35	57.48
687.676	57.52
688.001	57.54
688.327	57.59
688.652	57.71
688.978	57.8
689.303	57.88
689.629	57.99
689.954	58.17
690.279	58.23
690.604	58.33
690.93	58.36
691.255	58.42
691.58	58.55
691.905	58.65
692.23	58.7
692.555	58.7
692.88	58.76
693.204	58.79
693.529	58.75
693.854	58.81
694.179	58.91
694.503	59.04
694.828	59.12
695.153	59.2
695.477	59.21
695.802	59.24
696.126	59.25
696.451	59.34
696.775	59.37
697.099	59.57
697.423	59.64
697.748	59.71
698.072	59.72
698.396	59.81
698.72	59.87
699.044	59.94
699.368	60.06
699.692	60.23
700.016	60.27
700.34	60.37
700.664	60.43
700.987	60.56
701.311	60.61
701.635	60.67
701.958	60.7
702.282	60.58
702.606	60.63
702.929	60.67
703.252	60.65
703.576	60.73
703.899	60.8
704.223	60.76
704.546	60.7
704.869	60.73
705.192	60.77
705.515	60.85
705.838	61.06
706.161	61.22
706.484	61.35
706.807	61.51
707.13	61.5
707.453	61.58
707.776	61.73
708.099	61.83
708.421	61.96
708.744	62.23
709.067	62.35
709.389	62.51
709.712	62.49
710.034	62.57
710.357	62.67
710.679	62.75
711.001	62.83
711.324	62.81
711.646	62.89
711.968	62.88
712.29	62.77
712.612	62.81
712.935	62.91
713.257	62.96
713.579	62.99
713.9	62.91
714.222	63.06
714.544	63.14
714.866	63.35
715.188	63.45
715.509	63.71
715.831	63.86
716.153	63.87
716.474	63.77
716.796	63.84
717.117	64.07
717.439	64.25
717.76	64.2
718.081	64.16
718.403	64.13
718.724	64.17
719.045	64.12
719.366	64.22
719.687	64.36
720.009	64.42
720.33	64.5
720.651	64.29
720.971	64.34
721.292	64.43
721.613	64.58
721.934	64.63
722.255	64.59
722.575	64.7
722.896	64.72
723.217	64.73
723.537	64.83
723.858	64.83
724.178	64.99
724.499	64.98
724.819	65.08
725.139	65.05
725.46	65.16
725.78	65.25
726.1	65.13
726.42	65.16
726.74	65.21
727.06	65.24
727.38	65.31
727.7	65.21
728.02	65.36
728.34	65.39
728.66	65.52
728.98	65.53
729.299	65.46
729.619	65.52
729.939	65.56
730.258	65.55
730.578	65.57
730.897	65.53
731.217	65.69
731.536	65.73
731.856	65.78
732.175	65.73
732.494	65.8
732.814	66
733.133	66.14
733.452	66.11
733.771	66.3
734.09	66.41
734.409	66.54
734.728	66.49
735.047	66.55
735.366	66.66
735.684	66.78
736.003	66.91
736.322	66.99
736.641	67.03
736.959	67.27
737.278	67.24
737.596	67.19
737.915	67.27
738.233	67.42
738.552	67.45
738.87	67.45
739.188	67.44
739.507	67.43
739.825	67.53
740.143	67.62
740.461	67.45
740.779	67.49
741.097	67.66
741.415	67.68
741.733	67.83
742.051	67.9
742.369	67.97
742.687	68.15
743.004	68.16
743.322	68.06
743.64	68.02
743.957	68.21
744.275	68.16
744.593	68.07
744.91	68.11
745.227	68.06
745.545	67.93
745.862	67.99
746.179	67.89
746.497	67.82
746.814	67.9
747.131	67.79
747.448	67.74
747.765	67.88
748.082	67.92
748.399	68.07
748.716	68.01
749.033	68.24
749.35	68.2
749.667	68.29
749.983	68.36
750.3	68.36
750.617	68.46
750.933	68.67
751.25	68.7
751.566	68.81
751.883	68.78
752.199	68.96
752.516	69.03
752.832	69.04
753.148	69.12
753.464	69.15
753.781	69.13
754.097	69.19
754.413	69.17
754.729	69.11
755.045	69.05
755.361	69.05
755.677	69.08
755.992	68.95
756.308	69.02
756.624	69.01
756.94	69.15
757.255	69.22
757.571	69.21
757.887	69.28
758.202	69.34
758.518	69.46
758.833	69.46
759.148	69.34
759.464	69.58
759.779	69.59
760.094	69.55
760.41	69.63
760.725	69.8
761.04	69.92
761.355	69.92
761.67	69.9
761.985	69.96
762.3	70.04
762.615	70.13
762.93	70
763.244	70
763.559	70.05
763.874	70.09
764.188	70.02
764.503	70.06
764.818	70.02
765.132	70.1
765.447	70.17
765.761	70.25
766.075	70.35
766.39	70.43
766.704	70.54
767.018	70.53
767.332	70.42
767.646	70.47
767.961	70.42
768.275	70.52
768.589	70.63
768.903	70.59
769.216	70.45
769.53	70.4
769.844	70.4
770.158	70.34
770.472	70.49
770.785	70.5
771.099	70.41
771.413	70.61
771.726	70.52
772.04	70.59
772.353	70.73
772.666	70.83
772.98	70.87
773.293	71.02
773.606	71.02
773.919	70.98
774.233	71.01
774.546	71.28
774.859	71.21
775.172	71.25
775.485	71.12
775.798	71.19
776.111	71.24
776.423	71.17
776.736	71.16
777.049	71.27
777.362	71.38
777.674	71.49
777.987	71.3
778.299	71.22
778.612	71.34
778.924	71.57
779.237	71.3
779.549	71.42
779.862	71.6
780.174	71.59
780.486	71.6
780.798	71.54
781.11	71.49
781.422	71.67
781.735	71.66
782.046	71.5
782.358	71.34
782.67	71.58
782.982	71.42
783.294	71.41
783.606	71.34
783.917	71.44
784.229	71.42
784.541	71.65
784.852	71.58
785.164	71.63
785.475	71.78
785.787	71.77
786.098	71.76
786.41	71.84
786.721	71.91
787.032	71.94
787.343	71.78
787.654	71.91
787.966	71.82
788.277	71.74
788.588	71.81
788.899	71.86
789.209	72.09
789.52	71.91
789.831	72.03
790.142	71.9
790.453	72.01
790.763	72.32
791.074	72.28
791.385	72.13
791.695	72.26
792.006	72.45
792.316	72.39
792.626	72.42
792.937	72.6
793.247	72.45
793.557	72.55
793.868	72.44
794.178	72.31
794.488	72.51
794.798	72.6
795.108	72.72
795.418	72.86
795.728	72.73
796.038	72.76
796.348	72.64
796.657	72.66
796.967	72.67
797.277	72.67
797.587	72.73
797.896	72.61
798.206	72.73
798.515	72.74
798.825	72.73
799.134	73.09
799.444	72.86
799.753	72.99
800.062	73.46
800.371	73.44
800.681	73.47
800.99	73.25
801.299	73
801.608	72.88
801.917	72.92
802.226	72.73
802.535	72.57
802.844	72.61
803.152	72.79
803.461	72.4
803.77	72.58
804.078	72.37
804.387	72.58
804.696	72.84
805.004	73.06
805.313	72.89
805.621	72.87
805.93	72.79
806.238	72.84
806.546	72.71
806.854	72.75
807.163	72.66
807.471	73.04
807.779	73.16
808.087	73.27
808.395	73.17
808.703	73.28
809.011	73.36
809.319	73.37
809.626	73.2
809.934	73.12
810.242	72.99
810.55	73.1
810.857	72.88
811.165	72.47
811.472	72.47
811.78	72.23
812.087	72.24
812.395	71.93
812.702	71.94
813.009	72.39
813.317	72.4
813.624	72.45
813.931	72.24
814.238	72.35
814.545	72.77
814.852	72.73
815.159	72.86
815.466	72.6
815.773	72.69
816.08	72.8
816.387	72.36
816.693	72.45
817	72.77
817.307	72.78
817.613	72.79
817.92	72.76
818.226	72.82
818.533	73.03
818.839	72.97
819.146	73.29
819.452	73.12
819.758	73.29
820.064	73.11
820.371	73.06
820.677	73.02
820.983	73.16
821.289	73.17
821.595	73.36
821.901	73.2
822.207	73.6
822.512	73.54
822.818	73.57
823.124	73.49
823.43	73.54
823.735	73.42
824.041	73.59
824.347	73.36
824.652	73.48
824.957	72.77
825.263	72.82
825.568	72.77
825.874	72.44
826.179	73.02
826.484	73.18
826.789	73.12
827.094	73.45
827.399	73.36
827.705	73.56
828.01	73.37
828.314	74.04
828.619	74.37
828.924	74.71
829.229	75.16
829.534	74.59
829.838	74.68
830.143	74.99
830.448	74.52
830.752	74.56
831.057	74.71
831.361	74.42
831.666	74.11
831.97	74.1
832.274	74.05
832.579	73.79
832.883	73.97
833.187	73.9
833.491	73.74
833.795	74.13
834.099	74.35
834.403	74.13
834.707	74.48
835.011	74.82
835.315	74.6
835.619	74.2
835.923	74.23
836.226	74.8
836.53	75.13
836.834	75.16
837.137	74.82
837.441	74.69
837.744	74.32
838.048	74.09
838.351	73.8
838.654	74.2
838.958	74.12
839.261	74.31
839.564	73.65
839.867	73.15
840.17	72.94
840.473	73.28
840.776	73.74
841.079	74.16
841.382	74.09
841.685	73.85
841.988	73.8
842.291	73.59
842.593	73
842.896	72.89
843.199	72.82
843.501	72.95
843.804	72.8
844.106	72
844.409	71.92
844.711	72.42
845.013	72.82
845.316	72.48
845.618	73.11
845.92	73.72
846.222	74.08
846.524	74.73
846.826	74.71
847.128	74.19
847.43	74.31
847.732	74.71
848.034	75.14
848.336	75.37
848.638	74.99
848.939	75.41
849.241	75.07
849.543	75.02
849.844	74.76
850.146	74.64
850.447	74.96
850.749	74.91
851.05	74.58
851.351	73.58
851.653	72.42
851.954	72.59
852.255	72.49
852.556	72.73
852.857	72.48
853.158	72.29
853.459	72.64
853.76	72.14
854.061	72.42
854.362	72.36
854.663	72.3
854.964	73.26
855.264	73.56
855.565	72.84
855.866	73.36
856.166	73.36
856.467	73.71
856.767	73.55
857.068	73.74
857.368	73.59
857.668	73.96
857.969	74.38
858.269	74.3
858.569	73.77
858.869	73.85
859.169	73.66
859.469	74.05
859.769	73.92
860.069	74.66
860.369	75.19
860.669	75.56
860.969	76.01
861.269	76.23
861.568	76.26
861.868	76.32
862.168	76.84
862.467	76.45
862.767	76.69
863.066	76
863.366	74.99
863.665	74.82
863.964	74.23
864.264	73.2
864.563	72.43
864.862	71.92
865.161	71.83
865.46	71.89
865.759	72.62
866.058	71.87
866.357	73.11
866.656	73.25
866.955	73.59
867.254	73.42
867.552	73.26
867.851	73.58
868.15	73.13
868.448	73.06
868.747	71.92
869.045	71.65
869.344	71.36
869.642	70.17
869.941	70.28
870.239	69.68
870.537	70.34
870.836	70.38
871.134	70.41
871.432	70.56
871.73	70.98
872.028	71.57
872.326	71.03
872.624	70.5
872.922	70.53
873.22	70.42
873.517	69.56
873.815	68.72
874.113	68.77
874.411	68.89
874.708	70.13
875.006	71.27
875.303	70.84
875.601	70.13
875.898	71.36
876.195	72.9
876.493	73.07
876.79	74.13
877.087	75.22
877.384	75.45
877.682	75.45
877.979	74.07
878.276	72.73
878.573	73.15
878.87	73.97
879.166	73.71
879.463	71.27
