Data from L.a.arizonensis_ven_HW_orange_right_1_Reflection__0__07.txt Node

Date: Tue Dec 13 08:31:45 EST 2022
User: abbyrobinson
Spectrometer: USB2G8287
Scans to average: 10
Trigger mode: 4
Integration Time (sec): 1.000000E-1
Electric dark correction enabled: true
Boxcar width: 5
XAxis mode: Wavelengths
Number of Pixels in Spectrum: 2048
>>>>>Begin Spectral Data<<<<<
177.272	-687.5
177.658	-418.29
178.044	5680
178.43	-3180
178.816	-582.42
179.203	-352.13
179.589	67.51
179.975	53.34
180.361	105.91
180.747	138.21
181.133	343.99
181.519	1730.59
181.904	-418.29
182.29	-719.16
182.676	-462.19
183.062	-402.63
183.447	-315.38
183.833	-463.53
184.219	-1228.86
184.604	4177.55
184.99	-534.65
185.375	-293.46
185.761	-210.93
186.146	-134.62
186.531	-153.94
186.917	-116.74
187.302	-84.49
187.687	-50.06
188.073	-39.13
188.458	-20.62
188.843	-18.29
189.228	-23.28
189.613	-22.17
189.998	-30.47
190.383	-58.7
190.768	-70.75
191.153	-77.68
191.538	-60.76
191.923	-82.97
192.307	-92.27
192.692	-67.7
193.077	-51.53
193.461	-54.48
193.846	-48.69
194.231	-38.71
194.615	-16.67
195	-4.69
195.384	-1.9
195.769	-2.22
196.153	-7.33
196.537	2.24
196.922	-2
197.306	-3.76
197.69	9.51
198.074	10.5
198.458	12.65
198.843	7.84
199.227	8.13
199.611	3.82
199.995	8.1
200.379	16.73
200.763	17.93
201.146	19.21
201.53	14.94
201.914	7.23
202.298	7.93
202.681	5.51
203.065	8.91
203.449	10.94
203.832	13.6
204.216	1.88
204.599	35.69
204.983	36.82
205.366	32.04
205.75	37.91
206.133	34.12
206.516	31.5
206.9	27.46
207.283	25.91
207.666	25.7
208.049	30.92
208.432	32.75
208.815	4.27
209.198	-2.76
209.581	2.38
209.964	-0.45
210.347	5.2
210.73	3.76
211.113	7.04
211.496	4.94
211.879	3.82
212.261	-2.67
212.644	1.13
213.027	-5.03
213.409	1.06
213.792	1.95
214.174	2.53
214.557	-4.26
214.939	-6.6
215.322	-0.16
215.704	-1.01
216.086	-2.57
216.469	-6.17
216.851	-9.26
217.233	-9.93
217.615	-12.96
217.997	-14.14
218.379	-13.08
218.761	-7.77
219.143	-9.39
219.525	-19.71
219.907	-13.75
220.289	-15.31
220.671	-10.63
221.053	-5.39
221.435	-0.83
221.816	-4.42
222.198	-0.15
222.58	-0.8
222.961	2.28
223.343	8.22
223.724	9.53
224.106	12.63
224.487	10.69
224.869	9.22
225.25	5.76
225.631	5.5
226.013	8.28
226.394	0.21
226.775	-1.68
227.156	-3.74
227.537	-4.45
227.919	-3.78
228.3	-8.59
228.681	-5.21
229.062	-2.15
229.442	2.03
229.823	-0.52
230.204	1.56
230.585	3.4
230.966	5.48
231.347	7.45
231.727	8.76
232.108	9.87
232.488	12.01
232.869	13.53
233.25	13.57
233.63	12.67
234.01	13.57
234.391	13.58
234.771	14.52
235.152	14
235.532	12.51
235.912	11.78
236.292	11.96
236.672	11.7
237.053	11.06
237.433	10.54
237.813	10.79
238.193	11.49
238.573	11.1
238.953	11.19
239.333	10.71
239.712	11.35
240.092	11.47
240.472	11.27
240.852	11.75
241.231	12.03
241.611	11.95
241.991	11.95
242.37	11.64
242.75	11.85
243.129	11.55
243.509	11.85
243.888	11.5
244.267	11.45
244.647	11.52
245.026	11.42
245.405	11.43
245.784	11.73
246.164	11.52
246.543	11.54
246.922	11.43
247.301	11.62
247.68	11.54
248.059	11.68
248.438	11.67
248.817	11.8
249.195	11.62
249.574	11.58
249.953	11.46
250.332	11.55
250.71	11.52
251.089	11.63
251.468	11.55
251.846	11.61
252.225	11.57
252.603	11.45
252.982	11.46
253.36	11.56
253.738	11.46
254.117	11.42
254.495	11.36
254.873	11.34
255.251	11.25
255.63	11.28
256.008	11.23
256.386	11.4
256.764	11.39
257.142	11.21
257.52	11.03
257.898	11.07
258.276	11.06
258.653	10.98
259.031	10.97
259.409	10.89
259.787	10.73
260.164	10.62
260.542	10.47
260.92	10.5
261.297	10.46
261.675	10.42
262.052	10.31
262.43	10.23
262.807	10.21
263.184	10.21
263.562	10.27
263.939	10.32
264.316	10.3
264.693	10.29
265.07	10.28
265.448	10.31
265.825	10.39
266.202	10.45
266.579	10.43
266.956	10.46
267.333	10.45
267.709	10.48
268.086	10.42
268.463	10.46
268.84	10.41
269.216	10.34
269.593	10.29
269.97	10.22
270.346	10.19
270.723	10.14
271.099	10.12
271.476	10.17
271.852	10.13
272.229	10.13
272.605	10.12
272.981	10.06
273.358	10.06
273.734	10.12
274.11	10.19
274.486	10.15
274.862	10.22
275.238	10.27
275.614	10.12
275.99	10.05
276.366	10.07
276.742	10.07
277.118	10.14
277.494	10.13
277.87	10.05
278.245	9.94
278.621	9.96
278.997	9.87
279.372	9.79
279.748	9.95
280.123	9.94
280.499	9.91
280.874	10
281.25	9.86
281.625	9.89
282	9.87
282.376	9.92
282.751	9.89
283.126	9.93
283.501	9.95
283.876	9.82
284.252	9.78
284.627	9.78
285.002	9.62
285.377	9.68
285.751	9.68
286.126	9.69
286.501	9.71
286.876	9.71
287.251	9.66
287.625	9.66
288	9.66
288.375	9.69
288.749	9.64
289.124	9.71
289.498	9.61
289.873	9.47
290.247	9.4
290.622	9.39
290.996	9.35
291.37	9.35
291.745	9.26
292.119	9.26
292.493	9.24
292.867	9.26
293.241	9.29
293.616	9.41
293.99	9.34
294.364	9.36
294.737	9.28
295.111	9.19
295.485	9.23
295.859	9.27
296.233	9.17
296.607	9.19
296.98	9.18
297.354	9.12
297.728	9.05
298.101	9.12
298.475	9.16
298.848	9.15
299.222	9.14
299.595	9.02
299.968	9
300.342	8.98
300.715	8.79
301.088	8.68
301.462	8.66
301.835	8.7
302.208	8.62
302.581	8.58
302.954	8.6
303.327	8.75
303.7	8.84
304.073	8.8
304.446	8.84
304.819	8.97
305.192	8.99
305.564	8.92
305.937	8.87
306.31	8.88
306.682	8.81
307.055	8.75
307.428	8.65
307.8	8.62
308.173	8.62
308.545	8.5
308.917	8.51
309.29	8.54
309.662	8.58
310.034	8.57
310.407	8.67
310.779	8.67
311.151	8.73
311.523	8.71
311.895	8.63
312.267	8.67
312.639	8.76
313.011	8.67
313.383	8.61
313.755	8.47
314.127	8.38
314.498	8.36
314.87	8.31
315.242	8.21
315.614	8.12
315.985	8.12
316.357	7.98
316.728	7.89
317.1	7.83
317.471	7.81
317.843	7.86
318.214	7.96
318.585	7.9
318.957	7.9
319.328	8.01
319.699	8
320.07	8.02
320.441	8.02
320.813	8.02
321.184	8.11
321.555	8.03
321.926	8.05
322.297	7.98
322.667	7.91
323.038	7.93
323.409	7.83
323.78	7.78
324.151	7.75
324.521	7.78
324.892	7.78
325.262	7.77
325.633	7.78
326.004	7.71
326.374	7.62
326.744	7.63
327.115	7.59
327.485	7.59
327.855	7.59
328.226	7.6
328.596	7.54
328.966	7.43
329.336	7.37
329.706	7.35
330.076	7.33
330.447	7.37
330.816	7.39
331.186	7.27
331.556	7.23
331.926	7.27
332.296	7.22
332.666	7.22
333.036	7.22
333.405	7.17
333.775	7.12
334.144	7.08
334.514	7.01
334.884	6.93
335.253	7.03
335.623	6.93
335.992	6.92
336.361	6.84
336.731	6.76
337.1	6.79
337.469	6.9
337.838	6.9
338.208	6.89
338.577	6.89
338.946	6.88
339.315	6.87
339.684	6.94
340.053	6.89
340.422	6.88
340.79	6.92
341.159	6.77
341.528	6.58
341.897	6.61
342.266	6.5
342.634	6.53
343.003	6.51
343.371	6.43
343.74	6.31
344.108	6.24
344.477	6.27
344.845	6.28
345.214	6.38
345.582	6.45
345.95	6.39
346.319	6.46
346.687	6.41
347.055	6.48
347.423	6.55
347.791	6.59
348.159	6.53
348.527	6.54
348.895	6.49
349.263	6.45
349.631	6.43
349.999	6.39
350.367	6.4
350.734	6.34
351.102	6.34
351.47	6.25
351.837	6.22
352.205	6.22
352.573	6.09
352.94	6.07
353.308	6.03
353.675	5.97
354.042	5.95
354.41	5.91
354.777	5.95
355.144	5.9
355.511	5.89
355.879	5.88
356.246	5.93
356.613	5.9
356.98	5.97
357.347	6
357.714	5.96
358.081	6.01
358.448	6.05
358.815	5.94
359.181	5.84
359.548	5.79
359.915	5.8
360.282	5.72
360.648	5.87
361.015	5.86
361.381	5.81
361.748	5.75
362.114	5.67
362.481	5.64
362.847	5.62
363.214	5.65
363.58	5.63
363.946	5.63
364.312	5.61
364.678	5.51
365.045	5.46
365.411	5.44
365.777	5.52
366.143	5.52
366.509	5.49
366.875	5.62
367.241	5.59
367.606	5.56
367.972	5.51
368.338	5.53
368.704	5.47
369.069	5.48
369.435	5.48
369.801	5.43
370.166	5.36
370.532	5.36
370.897	5.28
371.263	5.25
371.628	5.35
371.993	5.31
372.359	5.35
372.724	5.32
373.089	5.27
373.454	5.36
373.82	5.33
374.185	5.38
374.55	5.37
374.915	5.36
375.28	5.45
375.645	5.4
376.01	5.38
376.374	5.29
376.739	5.35
377.104	5.31
377.469	5.24
377.833	5.27
378.198	5.31
378.563	5.41
378.927	5.36
379.292	5.2
379.656	5.17
380.021	5.19
380.385	5.25
380.749	5.23
381.114	5.22
381.478	5.21
381.842	5.18
382.206	5.12
382.571	5
382.935	4.99
383.299	5.06
383.663	5.01
384.027	5
384.391	4.99
384.755	5.01
385.118	5.01
385.482	5.06
385.846	5.05
386.21	5.05
386.573	4.98
386.937	4.95
387.301	4.94
387.664	4.93
388.028	4.87
388.391	4.86
388.755	4.85
389.118	4.81
389.481	4.76
389.845	4.8
390.208	4.73
390.571	4.79
390.934	4.85
391.298	4.83
391.661	4.87
392.024	4.87
392.387	4.9
392.75	4.89
393.113	4.9
393.476	4.86
393.838	4.89
394.201	4.95
394.564	4.94
394.927	4.93
395.289	4.92
395.652	4.93
396.015	5
396.377	4.97
396.74	4.95
397.102	4.98
397.465	4.96
397.827	4.95
398.189	4.98
398.552	5
398.914	4.98
399.276	5.07
399.638	5.11
400	5.07
400.363	5
400.725	5.02
401.087	4.99
401.449	4.99
401.81	4.93
402.172	4.89
402.534	4.82
402.896	4.86
403.258	4.82
403.619	4.78
403.981	4.8
404.343	4.89
404.704	4.88
405.066	4.9
405.427	4.92
405.789	4.92
406.15	4.92
406.512	5.01
406.873	4.97
407.234	4.97
407.596	4.97
407.957	5
408.318	4.92
408.679	4.88
409.04	4.87
409.401	4.86
409.762	4.85
410.123	4.88
410.484	4.84
410.845	4.81
411.206	4.82
411.567	4.83
411.927	4.8
412.288	4.86
412.649	4.98
413.009	5.03
413.37	5.09
413.731	5.12
414.091	5.18
414.452	5.2
414.812	5.27
415.172	5.3
415.533	5.3
415.893	5.33
416.253	5.34
416.613	5.25
416.974	5.27
417.334	5.28
417.694	5.24
418.054	5.23
418.414	5.25
418.774	5.23
419.134	5.15
419.494	5.18
419.853	5.18
420.213	5.17
420.573	5.2
420.933	5.21
421.292	5.19
421.652	5.28
422.011	5.2
422.371	5.23
422.73	5.21
423.09	5.23
423.449	5.24
423.809	5.24
424.168	5.28
424.527	5.29
424.887	5.26
425.246	5.26
425.605	5.25
425.964	5.34
426.323	5.28
426.682	5.34
427.041	5.35
427.4	5.28
427.759	5.32
428.118	5.29
428.477	5.38
428.835	5.41
429.194	5.4
429.553	5.39
429.911	5.36
430.27	5.41
430.629	5.43
430.987	5.45
431.346	5.49
431.704	5.52
432.062	5.55
432.421	5.48
432.779	5.44
433.137	5.52
433.496	5.52
433.854	5.51
434.212	5.51
434.57	5.53
434.928	5.55
435.286	5.58
435.644	5.49
436.002	5.49
436.36	5.6
436.718	5.63
437.075	5.64
437.433	5.66
437.791	5.7
438.149	5.69
438.506	5.65
438.864	5.65
439.221	5.66
439.579	5.7
439.936	5.7
440.294	5.67
440.651	5.68
441.009	5.6
441.366	5.56
441.723	5.57
442.08	5.57
442.437	5.57
442.795	5.54
443.152	5.55
443.509	5.57
443.866	5.6
444.223	5.55
444.58	5.52
444.936	5.55
445.293	5.64
445.65	5.66
446.007	5.72
446.363	5.76
446.72	5.78
447.077	5.8
447.433	5.78
447.79	5.83
448.146	5.89
448.503	5.92
448.859	5.97
449.215	5.98
449.572	6.01
449.928	6
450.284	6.02
450.641	6.05
450.997	6.04
451.353	6.13
451.709	6.13
452.065	6.12
452.421	6.18
452.777	6.2
453.133	6.21
453.488	6.2
453.844	6.21
454.2	6.2
454.556	6.26
454.911	6.3
455.267	6.28
455.623	6.26
455.978	6.26
456.334	6.27
456.689	6.29
457.045	6.34
457.4	6.32
457.755	6.27
458.111	6.3
458.466	6.28
458.821	6.27
459.176	6.3
459.531	6.32
459.886	6.33
460.242	6.35
460.597	6.31
460.951	6.3
461.306	6.38
461.661	6.45
462.016	6.42
462.371	6.43
462.726	6.45
463.08	6.49
463.435	6.5
463.79	6.54
464.144	6.49
464.499	6.54
464.853	6.5
465.208	6.49
465.562	6.46
465.916	6.54
466.271	6.61
466.625	6.64
466.979	6.61
467.333	6.62
467.688	6.62
468.042	6.66
468.396	6.71
468.75	6.78
469.104	6.78
469.458	6.83
469.811	6.8
470.165	6.77
470.519	6.8
470.873	6.82
471.227	6.84
471.58	6.87
471.934	6.84
472.287	6.81
472.641	6.84
472.995	6.84
473.348	6.87
473.701	6.87
474.055	6.92
474.408	6.92
474.761	6.92
475.115	6.94
475.468	6.93
475.821	7
476.174	7
476.527	6.99
476.88	7.06
477.233	7.07
477.586	7.12
477.939	7.13
478.292	7.13
478.645	7.17
478.998	7.23
479.35	7.32
479.703	7.36
480.056	7.4
480.408	7.4
480.761	7.4
481.113	7.47
481.466	7.5
481.818	7.5
482.171	7.58
482.523	7.61
482.875	7.65
483.228	7.67
483.58	7.68
483.932	7.68
484.284	7.71
484.636	7.73
484.988	7.74
485.34	7.77
485.692	7.79
486.044	7.79
486.396	7.82
486.748	7.79
487.1	7.79
487.451	7.8
487.803	7.87
488.155	7.87
488.506	7.87
488.858	7.85
489.209	7.86
489.561	7.89
489.912	7.88
490.264	7.87
490.615	7.9
490.966	7.93
491.318	7.96
491.669	7.96
492.02	8
492.371	8.03
492.722	8.07
493.073	8.09
493.424	8.13
493.775	8.15
494.126	8.21
494.477	8.21
494.828	8.22
495.179	8.22
495.53	8.26
495.88	8.26
496.231	8.35
496.582	8.4
496.932	8.39
497.283	8.4
497.633	8.43
497.984	8.45
498.334	8.47
498.684	8.44
499.035	8.47
499.385	8.47
499.735	8.55
500.086	8.52
500.436	8.55
500.786	8.61
501.136	8.62
501.486	8.63
501.836	8.65
502.186	8.68
502.536	8.75
502.886	8.81
503.235	8.82
503.585	8.81
503.935	8.84
504.285	8.85
504.634	8.92
504.984	8.95
505.333	9.01
505.683	9.02
506.032	9.05
506.382	9.11
506.731	9.1
507.08	9.12
507.43	9.11
507.779	9.1
508.128	9.15
508.477	9.18
508.826	9.22
509.176	9.29
509.525	9.33
509.874	9.36
510.222	9.37
510.571	9.36
510.92	9.44
511.269	9.52
511.618	9.56
511.967	9.56
512.315	9.61
512.664	9.67
513.012	9.68
513.361	9.75
513.71	9.77
514.058	9.79
514.406	9.88
514.755	9.85
515.103	9.89
515.451	9.94
515.8	9.96
516.148	9.95
516.496	9.92
516.844	9.95
517.192	9.96
517.54	10.03
517.888	10.01
518.236	10.01
518.584	10.09
518.932	10.08
519.28	10.12
519.628	10.19
519.975	10.22
520.323	10.29
520.671	10.28
521.018	10.31
521.366	10.35
521.713	10.47
522.061	10.5
522.408	10.53
522.756	10.64
523.103	10.67
523.45	10.71
523.798	10.75
524.145	10.79
524.492	10.86
524.839	10.89
525.186	10.87
525.533	10.87
525.88	10.93
526.227	11
526.574	10.99
526.921	10.99
527.268	11
527.615	11.06
527.961	11.11
528.308	11.07
528.655	11.13
529.001	11.15
529.348	11.19
529.694	11.27
530.041	11.3
530.387	11.31
530.734	11.34
531.08	11.42
531.426	11.44
531.773	11.4
532.119	11.44
532.465	11.49
532.811	11.55
533.157	11.6
533.503	11.59
533.849	11.62
534.195	11.69
534.541	11.78
534.887	11.78
535.233	11.79
535.579	11.86
535.924	11.93
536.27	11.94
536.616	11.96
536.961	11.96
537.307	12.07
537.652	12.05
537.998	12.06
538.343	12.09
538.689	12.11
539.034	12.18
539.379	12.2
539.725	12.29
540.07	12.32
540.415	12.4
540.76	12.47
541.105	12.43
541.45	12.51
541.795	12.59
542.14	12.64
542.485	12.69
542.83	12.75
543.175	12.84
543.519	12.87
543.864	12.92
544.209	12.97
544.554	12.98
544.898	13.04
545.243	13.08
545.587	13.12
545.932	13.14
546.276	13.19
546.621	13.19
546.965	13.21
547.309	13.24
547.653	13.27
547.998	13.29
548.342	13.32
548.686	13.41
549.03	13.47
549.374	13.51
549.718	13.5
550.062	13.59
550.406	13.63
550.75	13.66
551.094	13.69
551.437	13.72
551.781	13.75
552.125	13.78
552.468	13.76
552.812	13.79
553.156	13.8
553.499	13.85
553.843	13.86
554.186	13.9
554.529	13.91
554.873	13.91
555.216	13.93
555.559	14.01
555.902	14.08
556.246	14.14
556.589	14.18
556.932	14.23
557.275	14.29
557.618	14.3
557.961	14.38
558.304	14.42
558.646	14.49
558.989	14.53
559.332	14.53
559.675	14.53
560.017	14.55
560.36	14.6
560.703	14.62
561.045	14.65
561.388	14.71
561.73	14.68
562.073	14.78
562.415	14.8
562.757	14.88
563.1	14.87
563.442	14.96
563.784	14.98
564.126	15.02
564.468	15.04
564.81	15.12
565.152	15.18
565.494	15.23
565.836	15.22
566.178	15.33
566.52	15.36
566.862	15.49
567.204	15.47
567.545	15.54
567.887	15.56
568.229	15.58
568.57	15.56
568.912	15.58
569.253	15.63
569.595	15.66
569.936	15.71
570.277	15.75
570.619	15.79
570.96	15.87
571.301	15.93
571.642	15.98
571.984	16.09
572.325	16.15
572.666	16.2
573.007	16.3
573.348	16.37
573.689	16.35
574.03	16.39
574.37	16.39
574.711	16.43
575.052	16.49
575.393	16.55
575.733	16.62
576.074	16.67
576.414	16.72
576.755	16.73
577.095	16.78
577.436	16.87
577.776	16.92
578.117	16.97
578.457	17.03
578.797	17.06
579.137	17.1
579.478	17.12
579.818	17.16
580.158	17.18
580.498	17.21
580.838	17.24
581.178	17.27
581.518	17.31
581.858	17.38
582.197	17.42
582.537	17.48
582.877	17.49
583.217	17.51
583.556	17.55
583.896	17.61
584.235	17.66
584.575	17.69
584.914	17.73
585.254	17.79
585.593	17.83
585.933	17.87
586.272	17.87
586.611	17.91
586.95	17.95
587.289	17.99
587.629	18.03
587.968	18.05
588.307	18.12
588.646	18.16
588.985	18.18
589.323	18.2
589.662	18.24
590.001	18.29
590.34	18.32
590.679	18.39
591.017	18.4
591.356	18.44
591.695	18.49
592.033	18.54
592.372	18.58
592.71	18.6
593.048	18.68
593.387	18.71
593.725	18.78
594.063	18.79
594.402	18.81
594.74	18.89
595.078	18.91
595.416	18.94
595.754	18.96
596.092	19
596.43	19.02
596.768	19.04
597.106	19.12
597.444	19.12
597.781	19.2
598.119	19.23
598.457	19.24
598.795	19.28
599.132	19.31
599.47	19.3
599.807	19.33
600.145	19.4
600.482	19.4
600.82	19.42
601.157	19.47
601.494	19.46
601.831	19.51
602.169	19.51
602.506	19.58
602.843	19.63
603.18	19.66
603.517	19.71
603.854	19.74
604.191	19.76
604.528	19.77
604.865	19.79
605.202	19.87
605.538	19.89
605.875	19.97
606.212	19.98
606.548	20.02
606.885	20.06
607.222	20.06
607.558	20.08
607.895	20.14
608.231	20.19
608.567	20.21
608.904	20.24
609.24	20.32
609.576	20.34
609.912	20.39
610.248	20.45
610.585	20.47
610.921	20.53
611.257	20.54
611.593	20.63
611.929	20.69
612.264	20.74
612.6	20.79
612.936	20.78
613.272	20.81
613.608	20.85
613.943	20.86
614.279	20.9
614.614	20.9
614.95	20.95
615.285	20.93
615.621	20.94
615.956	21
616.292	21.04
616.627	21.07
616.962	21.12
617.297	21.1
617.632	21.1
617.968	21.15
618.303	21.22
618.638	21.24
618.973	21.31
619.308	21.33
619.643	21.3
619.977	21.36
620.312	21.38
620.647	21.39
620.982	21.42
621.316	21.52
621.651	21.53
621.986	21.52
622.32	21.6
622.655	21.61
622.989	21.65
623.324	21.7
623.658	21.66
623.992	21.7
624.326	21.72
624.661	21.76
624.995	21.79
625.329	21.81
625.663	21.87
625.997	21.91
626.331	21.95
626.665	22.01
626.999	22.03
627.333	22.08
627.667	22.11
628.001	22.15
628.334	22.18
628.668	22.16
629.002	22.17
629.335	22.22
629.669	22.15
630.002	22.17
630.336	22.17
630.669	22.21
631.003	22.22
631.336	22.29
631.669	22.32
632.003	22.35
632.336	22.38
632.669	22.42
633.002	22.39
633.335	22.53
633.668	22.51
634.001	22.52
634.334	22.58
634.667	22.57
635	22.58
635.333	22.57
635.665	22.55
635.998	22.57
636.331	22.6
636.663	22.64
636.996	22.62
637.328	22.67
637.661	22.69
637.993	22.69
638.326	22.73
638.658	22.71
638.99	22.75
639.323	22.86
639.655	22.86
639.987	22.92
640.319	22.93
640.651	22.91
640.983	22.97
641.315	22.99
641.647	22.99
641.979	23.03
642.311	23.04
642.643	23.08
642.975	23.02
643.306	23.05
643.638	23.02
643.97	23.09
644.301	23.12
644.633	23.06
644.964	23.06
645.296	23.08
645.627	23.09
645.959	23.07
646.29	23.03
646.621	23.09
646.952	23.18
647.284	23.25
647.615	23.27
647.946	23.34
648.277	23.35
648.608	23.42
648.939	23.49
649.27	23.58
649.601	23.63
649.931	23.67
650.262	23.71
650.593	23.77
650.924	23.8
651.254	23.85
651.585	23.85
651.915	23.93
652.246	24.03
652.576	24.04
652.907	24.04
653.237	23.99
653.568	24.09
653.898	24.09
654.228	24.03
654.558	24.06
654.888	24.15
655.219	24.23
655.549	24.37
655.879	24.59
656.209	24.85
656.539	25.09
656.868	25.34
657.198	25.5
657.528	25.61
657.858	25.74
658.188	25.85
658.517	25.93
658.847	26
659.176	26.06
659.506	26.09
659.835	26.12
660.165	26.16
660.494	26.18
660.824	26.19
661.153	26.23
661.482	26.23
661.811	26.22
662.14	26.2
662.47	26.19
662.799	26.2
663.128	26.2
663.457	26.17
663.786	26.09
664.114	26.04
664.443	25.98
664.772	25.94
665.101	25.8
665.43	25.75
665.758	25.64
666.087	25.51
666.415	25.4
666.744	25.3
667.072	25.28
667.401	25.36
667.729	25.34
668.058	25.3
668.386	25.29
668.714	25.41
669.042	25.37
669.371	25.42
669.699	25.38
670.027	25.42
670.355	25.49
670.683	25.58
671.011	25.58
671.339	25.66
671.666	25.76
671.994	25.86
672.322	25.94
672.65	25.98
672.977	26.03
673.305	26.21
673.633	26.23
673.96	26.31
674.288	26.23
674.615	26.2
674.943	26.25
675.27	26.33
675.597	26.33
675.924	26.31
676.252	26.44
676.579	26.48
676.906	26.45
677.233	26.53
677.56	26.47
677.887	26.6
678.214	26.65
678.541	26.65
678.868	26.61
679.195	26.64
679.521	26.67
679.848	26.64
680.175	26.59
680.501	26.63
680.828	26.55
681.154	26.64
681.481	26.69
681.807	26.81
682.134	26.91
682.46	26.97
682.787	27.02
683.113	27.05
683.439	27.17
683.765	27.29
684.091	27.36
684.417	27.49
684.743	27.54
685.069	27.55
685.395	27.5
685.721	27.47
686.047	27.54
686.373	27.63
686.699	27.68
687.024	27.68
687.35	27.75
687.676	27.76
688.001	27.81
688.327	27.84
688.652	27.86
688.978	27.93
689.303	28.01
689.629	28.12
689.954	28.11
690.279	28.17
690.604	28.22
690.93	28.33
691.255	28.32
691.58	28.36
691.905	28.41
692.23	28.47
692.555	28.55
692.88	28.63
693.204	28.54
693.529	28.59
693.854	28.69
694.179	28.7
694.503	28.71
694.828	28.83
695.153	28.79
695.477	28.9
695.802	28.9
696.126	28.92
696.451	28.87
696.775	28.97
697.099	28.95
697.423	28.9
697.748	28.88
698.072	28.92
698.396	28.88
698.72	28.96
699.044	28.83
699.368	28.88
699.692	28.86
700.016	28.87
700.34	28.95
700.664	28.97
700.987	29.03
701.311	29.04
701.635	29.06
701.958	29.1
702.282	29.12
702.606	29.12
702.929	29.2
703.252	29.29
703.576	29.35
703.899	29.3
704.223	29.35
704.546	29.41
704.869	29.43
705.192	29.4
705.515	29.48
705.838	29.51
706.161	29.63
706.484	29.62
706.807	29.58
707.13	29.6
707.453	29.58
707.776	29.6
708.099	29.55
708.421	29.63
708.744	29.7
709.067	29.78
709.389	29.88
709.712	29.99
710.034	29.97
710.357	30.16
710.679	30.22
711.001	30.46
711.324	30.58
711.646	30.68
711.968	30.72
712.29	30.79
712.612	30.79
712.935	30.82
713.257	30.9
713.579	31.07
713.9	31.03
714.222	31.06
714.544	31
714.866	31.08
715.188	31.12
715.509	31.12
715.831	31.18
716.153	31.2
716.474	31.2
716.796	31.15
717.117	31.14
717.439	31.2
717.76	31.25
718.081	31.26
718.403	31.1
718.724	31.1
719.045	31.2
719.366	31.08
719.687	31.09
720.009	31.1
720.33	31
720.651	30.97
720.971	31.01
721.292	31.04
721.613	30.98
721.934	31.13
722.255	31.14
722.575	31.03
722.896	31.2
723.217	31.26
723.537	31.33
723.858	31.44
724.178	31.47
724.499	31.41
724.819	31.51
725.139	31.59
725.46	31.64
725.78	31.69
726.1	31.73
726.42	31.72
726.74	31.72
727.06	31.72
727.38	31.81
727.7	31.84
728.02	31.87
728.34	31.85
728.66	31.98
728.98	32.05
729.299	32.12
729.619	32.29
729.939	32.28
730.258	32.43
730.578	32.53
730.897	32.56
731.217	32.62
731.536	32.75
731.856	32.83
732.175	32.76
732.494	32.72
732.814	32.85
733.133	32.8
733.452	32.91
733.771	32.91
734.09	32.94
734.409	32.99
734.728	33.11
735.047	33.2
735.366	33.12
735.684	33.21
736.003	33.34
736.322	33.44
736.641	33.54
736.959	33.57
737.278	33.78
737.596	33.89
737.915	33.98
738.233	33.9
738.552	33.8
738.87	33.81
739.188	33.83
739.507	33.83
739.825	33.82
740.143	33.94
740.461	33.9
740.779	33.76
741.097	33.66
741.415	33.63
741.733	34.13
742.051	34.17
742.369	34.22
742.687	34.35
743.004	34.32
743.322	34.18
743.64	34.18
743.957	34.32
744.275	34.32
744.593	34.39
744.91	34.37
745.227	33.89
745.545	34.02
745.862	34.13
746.179	34.17
746.497	34.37
746.814	34.5
747.131	34.45
747.448	34.45
747.765	34.36
748.082	34.45
748.399	34.44
748.716	34.48
749.033	34.59
749.35	34.72
749.667	34.64
749.983	34.57
750.3	34.54
750.617	34.63
750.933	34.62
751.25	34.7
751.566	34.64
751.883	34.8
752.199	34.94
752.516	34.84
752.832	34.85
753.148	35.06
753.464	34.98
753.781	35.08
754.097	35.1
754.413	35.15
754.729	35.33
755.045	35.46
755.361	35.52
755.677	35.52
755.992	35.5
756.308	35.52
756.624	35.51
756.94	35.6
757.255	35.71
757.571	35.62
757.887	35.82
758.202	35.7
758.518	35.73
758.833	35.72
759.148	35.72
759.464	35.86
759.779	36
760.094	36.1
760.41	36.26
760.725	36.27
761.04	36.41
761.355	36.43
761.67	36.61
761.985	36.59
762.3	36.79
762.615	36.9
762.93	36.92
763.244	36.8
763.559	36.73
763.874	36.78
764.188	36.79
764.503	36.8
764.818	36.75
765.132	36.78
765.447	36.8
765.761	36.63
766.075	36.7
766.39	36.81
766.704	36.89
767.018	37.05
767.332	37.06
767.646	37.06
767.961	37.03
768.275	36.97
768.589	36.99
768.903	37.05
769.216	37.22
769.53	37.09
769.844	37.03
770.158	37.13
770.472	36.91
770.785	37.05
771.099	37.25
771.413	37.41
771.726	37.64
772.04	37.67
772.353	37.76
772.666	37.73
772.98	37.81
773.293	37.93
773.606	37.97
773.919	38.29
774.233	38.07
774.546	37.88
774.859	37.89
775.172	37.85
775.485	37.99
775.798	38.06
776.111	37.99
776.423	38.01
776.736	38.1
777.049	38.08
777.362	37.98
777.674	38.18
777.987	38.29
778.299	38.29
778.612	38.37
778.924	38.18
779.237	38.13
779.549	38.34
779.862	38.49
780.174	38.21
780.486	38.33
780.798	38.32
781.11	38.23
781.422	38.04
781.735	38.01
782.046	37.94
782.358	38.22
782.67	38.16
782.982	38
783.294	37.97
783.606	38.18
783.917	38.07
784.229	38.06
784.541	38.06
784.852	38.38
785.164	38.72
785.475	38.81
785.787	38.84
786.098	38.88
786.41	39.14
786.721	39.14
787.032	39.25
787.343	39.36
787.654	39.46
787.966	39.56
788.277	39.6
788.588	39.5
788.899	39.42
789.209	39.47
789.52	39.65
789.831	39.45
790.142	39.43
790.453	39.38
790.763	39.33
791.074	39.06
791.385	39.05
791.695	39.3
792.006	39.39
792.316	39.49
792.626	39.41
792.937	39.19
793.247	39.15
793.557	39.15
793.868	39.03
794.178	39.09
794.488	39.39
794.798	39.66
795.108	39.54
795.418	39.53
795.728	39.53
796.038	39.59
796.348	39.86
796.657	40.08
796.967	40.46
797.277	40.64
797.587	40.66
797.896	40.64
798.206	40.57
798.515	40.5
798.825	40.39
799.134	40.54
799.444	40.46
799.753	40.47
800.062	40.56
800.371	40.48
800.681	40.46
800.99	40.52
801.299	40.77
801.608	40.83
801.917	40.98
802.226	41.06
802.535	40.85
802.844	40.72
803.152	40.79
803.461	40.37
803.77	40.4
804.078	40.53
804.387	40.64
804.696	40.49
805.004	40.45
805.313	40.24
805.621	40.17
805.93	40.2
806.238	40.4
806.546	40.34
806.854	40.69
807.163	40.59
807.471	40.54
807.779	40.67
808.087	40.86
808.395	41.16
808.703	41.44
809.011	41.4
809.319	41.5
809.626	41.71
809.934	41.76
810.242	41.78
810.55	41.85
810.857	41.6
811.165	41.42
811.472	41.11
811.78	41.28
812.087	41.17
812.395	41.32
812.702	41.6
813.009	41.28
813.317	41.25
813.624	41.24
813.931	41.25
814.238	41.5
814.545	41.57
814.852	41.9
815.159	41.29
815.466	41.33
815.773	41.5
816.08	41.3
816.387	41.43
816.693	41.48
817	41.48
817.307	41.36
817.613	41.74
817.92	41.79
818.226	41.65
818.533	41.4
818.839	41.7
819.146	41.53
819.452	41.54
819.758	41.71
820.064	41.68
820.371	42.26
820.677	42.63
820.983	42.6
821.289	42.3
821.595	42.13
821.901	42.82
822.207	42.5
822.512	42.55
822.818	42.59
823.124	42.51
823.43	42.92
823.735	42.28
824.041	41.91
824.347	41.87
824.652	42.36
824.957	42.63
825.263	42.14
825.568	42.26
825.874	42.67
826.179	43.22
826.484	43.05
826.789	43.01
827.094	42.99
827.399	43.04
827.705	42.71
828.01	42.59
828.314	43.13
828.619	43.3
828.924	43.12
829.229	42.67
829.534	42.46
829.838	43.02
830.143	42.44
830.448	42.88
830.752	43.16
831.057	43.61
831.361	43.81
831.666	43.2
831.97	43.37
832.274	43.25
832.579	43.31
832.883	42.93
833.187	42.59
833.491	43.52
833.795	43.58
834.099	43.56
834.403	43.32
834.707	43.1
835.011	43.61
835.315	44.02
835.619	44.35
835.923	44.54
836.226	44.41
836.53	44.79
836.834	44.11
837.137	43.68
837.441	43.93
837.744	43.58
838.048	43.77
838.351	43.36
838.654	42.82
838.958	42.54
839.261	42.66
839.564	42.82
839.867	42.47
840.17	42.57
840.473	43.22
840.776	43.09
841.079	43.34
841.382	43.05
841.685	43.62
841.988	43.63
842.291	44.07
842.593	44.29
842.896	44.13
843.199	44.33
843.501	43.78
843.804	43.09
844.106	42.79
844.409	42.49
844.711	41.68
845.013	41.66
845.316	42.87
845.618	42.46
845.92	42.19
846.222	42.59
846.524	42.85
846.826	43.46
847.128	43.92
847.43	43.99
847.732	44.44
848.034	45.55
848.336	45.57
848.638	44.69
848.939	44.99
849.241	44.74
849.543	43.92
849.844	43.7
850.146	43.33
850.447	43.35
850.749	43.53
851.05	43.89
851.351	43.98
851.653	43.28
851.954	43.08
852.255	43.72
852.556	43.51
852.857	44.15
853.158	43.63
853.459	43.67
853.76	43.37
854.061	43.08
854.362	41.74
854.663	41.69
854.964	41.33
855.264	41.12
855.565	40.19
855.866	40.35
856.166	39.91
856.467	40.44
856.767	40.43
857.068	40.89
857.368	41.19
857.668	42.8
857.969	43.02
858.269	43.68
858.569	43.88
858.869	44.08
859.169	44.2
859.469	44.53
859.769	44.46
860.069	45.19
860.369	44.99
860.669	45.15
860.969	44.62
861.269	43.18
861.568	42.56
861.868	43.4
862.168	44.63
862.467	44.45
862.767	44.48
863.066	44.27
863.366	43.21
863.665	43.25
863.964	43.02
864.264	42.87
864.563	43.9
864.862	44.02
865.161	43.16
865.46	42.31
865.759	42.96
866.058	43.12
866.357	44.2
866.656	44.91
866.955	45.03
867.254	46.06
867.552	45.75
867.851	45.68
868.15	46.97
868.448	47.75
868.747	47.32
869.045	46.69
869.344	47.08
869.642	47.62
869.941	48.7
870.239	48.5
870.537	47.92
870.836	47.25
871.134	47.42
871.432	45.99
871.73	44.83
872.028	45.36
872.326	45.73
872.624	46.48
872.922	45.01
873.22	44.56
873.517	44.55
873.815	44.15
874.113	44.67
874.411	45.08
874.708	45.53
875.006	45.98
875.303	45.56
875.601	45.53
875.898	44.06
876.195	43.8
876.493	42.65
876.79	41.58
877.087	41.32
877.384	42.31
877.682	42.55
877.979	41.31
878.276	41.04
878.573	40.35
878.87	39.9
879.166	40.13
879.463	40.14
