Data from L.a.arizonensis_ven_HW_orange_left_2_Reflection__0__14.txt Node

Date: Tue Dec 13 08:38:08 EST 2022
User: abbyrobinson
Spectrometer: USB2G8287
Scans to average: 10
Trigger mode: 4
Integration Time (sec): 1.000000E-1
Electric dark correction enabled: true
Boxcar width: 5
XAxis mode: Wavelengths
Number of Pixels in Spectrum: 2048
>>>>>Begin Spectral Data<<<<<
177.272	109.32
177.658	120.29
178.044	403.45
178.43	237.74
178.816	372.41
179.203	519.46
179.589	78.31
179.975	73.74
180.361	79.08
180.747	109.24
181.133	132.77
181.519	110.2
181.904	120.29
182.29	733.76
182.676	391.3
183.062	303.84
183.447	370.14
183.833	201.43
184.219	166.91
184.604	194.53
184.99	547
185.375	2820.9
185.761	-388.16
186.146	-223.07
186.531	-165.9
186.917	-71.07
187.302	-62.28
187.687	-38.76
188.073	-35.87
188.458	-27.1
188.843	-23.39
189.228	-22.58
189.613	-15.49
189.998	-22.85
190.383	-39.64
190.768	-57.67
191.153	-70.84
191.538	-62.54
191.923	-82.75
192.307	-88.56
192.692	-73.01
193.077	-55.29
193.461	-47.9
193.846	-47.03
194.231	-45.66
194.615	-31.91
195	-15.16
195.384	-12.3
195.769	-10.38
196.153	-4.6
196.537	1.19
196.922	2.41
197.306	2.9
197.69	11.36
198.074	11.14
198.458	15.59
198.843	8.7
199.227	-1.23
199.611	-2.82
199.995	-1.78
200.379	-4.42
200.763	-2.33
201.146	-3.78
201.53	-5.81
201.914	-14.49
202.298	-10.23
202.681	-13.26
203.065	-4.9
203.449	2.9
203.832	7.97
204.216	3.04
204.599	36.17
204.983	36.43
205.366	37.88
205.75	40.69
206.133	39.67
206.516	39.59
206.9	38.21
207.283	33.88
207.666	33.13
208.049	34.76
208.432	37.5
208.815	13.16
209.198	11.16
209.581	10.52
209.964	8.56
210.347	10.36
210.73	6.97
211.113	11.54
211.496	15.02
211.879	14.95
212.261	8.4
212.644	11.63
213.027	6.14
213.409	11.37
213.792	11.37
214.174	10.2
214.557	7.37
214.939	6.35
215.322	9.14
215.704	9.32
216.086	7.62
216.469	9.1
216.851	2.76
217.233	0.87
217.615	-3.48
217.997	-9
218.379	-8.05
218.761	-5.38
219.143	-5.25
219.525	-10.98
219.907	-10.84
220.289	-11.21
220.671	-9.5
221.053	-4.16
221.435	-1.04
221.816	2.26
222.198	4.83
222.58	2.57
222.961	3.76
223.343	6.06
223.724	7.79
224.106	13.87
224.487	8.95
224.869	6.85
225.25	4.74
225.631	6.85
226.013	3.77
226.394	2.6
226.775	2.7
227.156	0.61
227.537	1.32
227.919	0.57
228.3	-2.81
228.681	1.82
229.062	1.9
229.442	5.92
229.823	3.82
230.204	3.74
230.585	4.99
230.966	7.71
231.347	10.11
231.727	9.53
232.108	10.22
232.488	9.72
232.869	9.01
233.25	9.13
233.63	7.09
234.01	7.34
234.391	8.99
234.771	9.19
235.152	8.03
235.532	6.45
235.912	6.76
236.292	7.39
236.672	8.5
237.053	9.39
237.433	9.73
237.813	9.84
238.193	10.82
238.573	11
238.953	11.09
239.333	11.03
239.712	11.83
240.092	11.7
240.472	11.31
240.852	11.42
241.231	11.69
241.611	11.67
241.991	11.69
242.37	11.33
242.75	10.93
243.129	10.7
243.509	10.89
243.888	11.03
244.267	10.99
244.647	11.03
245.026	10.91
245.405	10.52
245.784	10.42
246.164	10.41
246.543	10.53
246.922	10.6
247.301	10.67
247.68	10.61
248.059	10.24
248.438	10.18
248.817	10.32
249.195	10.25
249.574	10.19
249.953	10.2
250.332	10.23
250.71	10.09
251.089	10.09
251.468	10.03
251.846	10
252.225	10.26
252.603	10.22
252.982	10.17
253.36	10.2
253.738	10.25
254.117	10.19
254.495	10
254.873	9.99
255.251	9.91
255.63	10.01
256.008	9.97
256.386	10
256.764	10.06
257.142	9.95
257.52	9.79
257.898	9.81
258.276	9.91
258.653	10.09
259.031	10.11
259.409	10.1
259.787	9.95
260.164	9.94
260.542	9.73
260.92	9.63
261.297	9.56
261.675	9.61
262.052	9.48
262.43	9.33
262.807	9.21
263.184	9.2
263.562	9.18
263.939	9.17
264.316	9.15
264.693	9.22
265.07	9.21
265.448	9.3
265.825	9.24
266.202	9.29
266.579	9.3
266.956	9.3
267.333	9.26
267.709	9.28
268.086	9.25
268.463	9.25
268.84	9.08
269.216	9.06
269.593	8.98
269.97	9.01
270.346	9
270.723	8.93
271.099	8.83
271.476	8.78
271.852	8.8
272.229	8.85
272.605	8.76
272.981	8.88
273.358	8.88
273.734	8.88
274.11	8.86
274.486	8.94
274.862	9
275.238	9.14
275.614	9.14
275.99	9.06
276.366	9.05
276.742	9.07
277.118	9.07
277.494	9.09
277.87	9.08
278.245	9.07
278.621	8.96
278.997	8.84
279.372	8.71
279.748	8.78
280.123	8.72
280.499	8.7
280.874	8.76
281.25	8.65
281.625	8.59
282	8.67
282.376	8.66
282.751	8.65
283.126	8.81
283.501	8.83
283.876	8.77
284.252	8.71
284.627	8.64
285.002	8.62
285.377	8.62
285.751	8.63
286.126	8.54
286.501	8.51
286.876	8.51
287.251	8.37
287.625	8.37
288	8.44
288.375	8.55
288.749	8.57
289.124	8.67
289.498	8.6
289.873	8.45
290.247	8.45
290.622	8.47
290.996	8.34
291.37	8.27
291.745	8.24
292.119	8.12
292.493	8.08
292.867	8.05
293.241	7.93
293.616	7.91
293.99	7.9
294.364	7.79
294.737	7.79
295.111	7.83
295.485	7.87
295.859	7.89
296.233	7.88
296.607	7.84
296.98	7.87
297.354	7.83
297.728	7.95
298.101	7.99
298.475	8.02
298.848	7.95
299.222	7.89
299.595	7.92
299.968	7.82
300.342	7.75
300.715	7.7
301.088	7.55
301.462	7.53
301.835	7.55
302.208	7.53
302.581	7.59
302.954	7.57
303.327	7.65
303.7	7.58
304.073	7.6
304.446	7.67
304.819	7.79
305.192	7.84
305.564	7.78
305.937	7.67
306.31	7.7
306.682	7.58
307.055	7.51
307.428	7.47
307.8	7.56
308.173	7.55
308.545	7.48
308.917	7.35
309.29	7.39
309.662	7.46
310.034	7.45
310.407	7.47
310.779	7.5
311.151	7.57
311.523	7.6
311.895	7.57
312.267	7.62
312.639	7.58
313.011	7.59
313.383	7.55
313.755	7.41
314.127	7.32
314.498	7.28
314.87	7.29
315.242	7.31
315.614	7.23
315.985	7.09
316.357	7.02
316.728	7.07
317.1	7.01
317.471	7.02
317.843	7.12
318.214	7.18
318.585	7.19
318.957	7.2
319.328	7.19
319.699	7.21
320.07	7.34
320.441	7.24
320.813	7.16
321.184	7.24
321.555	7.11
321.926	7.09
322.297	7.01
322.667	6.87
323.038	6.83
323.409	6.78
323.78	6.72
324.151	6.63
324.521	6.66
324.892	6.69
325.262	6.66
325.633	6.75
326.004	6.71
326.374	6.73
326.744	6.72
327.115	6.61
327.485	6.57
327.855	6.54
328.226	6.61
328.596	6.57
328.966	6.51
329.336	6.4
329.706	6.37
330.076	6.32
330.447	6.29
330.816	6.38
331.186	6.37
331.556	6.36
331.926	6.34
332.296	6.26
332.666	6.25
333.036	6.16
333.405	6.19
333.775	6.07
334.144	6.13
334.514	6.04
334.884	5.96
335.253	6.08
335.623	6.06
335.992	6.06
336.361	6.03
336.731	5.97
337.1	6.01
337.469	6.04
337.838	6.12
338.208	6.08
338.577	6.12
338.946	6.11
339.315	5.97
339.684	6.02
340.053	6.01
340.422	5.99
340.79	6.06
341.159	6.03
341.528	5.98
341.897	6.01
342.266	5.91
342.634	5.91
343.003	5.96
343.371	5.9
343.74	5.75
344.108	5.72
344.477	5.65
344.845	5.61
345.214	5.61
345.582	5.63
345.95	5.57
346.319	5.68
346.687	5.66
347.055	5.6
347.423	5.7
347.791	5.78
348.159	5.7
348.527	5.85
348.895	5.9
349.263	5.95
349.631	5.93
349.999	5.89
350.367	5.89
350.734	5.82
351.102	5.85
351.47	5.84
351.837	5.78
352.205	5.75
352.573	5.6
352.94	5.53
353.308	5.49
353.675	5.43
354.042	5.42
354.41	5.31
354.777	5.39
355.144	5.39
355.511	5.31
355.879	5.3
356.246	5.38
356.613	5.37
356.98	5.34
357.347	5.34
357.714	5.29
358.081	5.3
358.448	5.4
358.815	5.25
359.181	5.16
359.548	5.14
359.915	5.09
360.282	5.02
360.648	5.07
361.015	5.07
361.381	4.99
361.748	4.96
362.114	4.9
362.481	4.85
362.847	4.94
363.214	4.94
363.58	4.91
363.946	4.98
364.312	4.95
364.678	4.89
365.045	4.91
365.411	5
365.777	5.03
366.143	4.94
366.509	4.94
366.875	5.04
367.241	4.95
367.606	4.95
367.972	4.92
368.338	4.93
368.704	4.88
369.069	4.87
369.435	4.76
369.801	4.78
370.166	4.84
370.532	4.77
370.897	4.65
371.263	4.76
371.628	4.78
371.993	4.69
372.359	4.72
372.724	4.71
373.089	4.65
373.454	4.74
373.82	4.67
374.185	4.66
374.55	4.68
374.915	4.65
375.28	4.72
375.645	4.69
376.01	4.73
376.374	4.73
376.739	4.74
377.104	4.74
377.469	4.72
377.833	4.79
378.198	4.77
378.563	4.78
378.927	4.76
379.292	4.6
379.656	4.58
380.021	4.61
380.385	4.57
380.749	4.6
381.114	4.67
381.478	4.63
381.842	4.56
382.206	4.52
382.571	4.46
382.935	4.45
383.299	4.5
383.663	4.5
384.027	4.44
384.391	4.42
384.755	4.37
385.118	4.3
385.482	4.34
385.846	4.35
386.21	4.35
386.573	4.35
386.937	4.37
387.301	4.34
387.664	4.26
388.028	4.27
388.391	4.29
388.755	4.29
389.118	4.23
389.481	4.18
389.845	4.19
390.208	4.21
390.571	4.22
390.934	4.13
391.298	4.1
391.661	4.16
392.024	4.12
392.387	4.16
392.75	4.2
393.113	4.21
393.476	4.16
393.838	4.17
394.201	4.15
394.564	4.15
394.927	4.17
395.289	4.23
395.652	4.21
396.015	4.26
396.377	4.19
396.74	4.13
397.102	4.13
397.465	4.14
397.827	4.14
398.189	4.2
398.552	4.2
398.914	4.2
399.276	4.24
399.638	4.26
400	4.21
400.363	4.18
400.725	4.18
401.087	4.19
401.449	4.17
401.81	4.14
402.172	4.03
402.534	4.01
402.896	4
403.258	3.95
403.619	3.95
403.981	3.92
404.343	3.96
404.704	3.97
405.066	3.97
405.427	4.01
405.789	4.06
406.15	4.07
406.512	4.08
406.873	4.1
407.234	4.11
407.596	4.12
407.957	4.22
408.318	4.19
408.679	4.23
409.04	4.23
409.401	4.17
409.762	4.12
410.123	4.17
410.484	4.19
410.845	4.17
411.206	4.17
411.567	4.14
411.927	4.11
412.288	4.13
412.649	4.32
413.009	4.36
413.37	4.45
413.731	4.46
414.091	4.44
414.452	4.41
414.812	4.45
415.172	4.43
415.533	4.44
415.893	4.5
416.253	4.49
416.613	4.25
416.974	4.21
417.334	4.18
417.694	4.2
418.054	4.2
418.414	4.19
418.774	4.15
419.134	4.18
419.494	4.19
419.853	4.1
420.213	4.1
420.573	4.13
420.933	4.13
421.292	4.12
421.652	4.11
422.011	4.06
422.371	4.1
422.73	4.08
423.09	4.05
423.449	4.1
423.809	4.13
424.168	4.19
424.527	4.18
424.887	4.23
425.246	4.24
425.605	4.21
425.964	4.28
426.323	4.24
426.682	4.31
427.041	4.3
427.4	4.23
427.759	4.24
428.118	4.18
428.477	4.21
428.835	4.19
429.194	4.22
429.553	4.28
429.911	4.28
430.27	4.3
430.629	4.25
430.987	4.29
431.346	4.26
431.704	4.29
432.062	4.37
432.421	4.35
432.779	4.34
433.137	4.36
433.496	4.34
433.854	4.29
434.212	4.3
434.57	4.34
434.928	4.34
435.286	4.38
435.644	4.33
436.002	4.26
436.36	4.3
436.718	4.32
437.075	4.29
437.433	4.26
437.791	4.29
438.149	4.28
438.506	4.28
438.864	4.26
439.221	4.29
439.579	4.27
439.936	4.31
440.294	4.28
440.651	4.33
441.009	4.31
441.366	4.3
441.723	4.3
442.08	4.34
442.437	4.3
442.795	4.29
443.152	4.26
443.509	4.31
443.866	4.28
444.223	4.3
444.58	4.26
444.936	4.22
445.293	4.28
445.65	4.32
446.007	4.27
446.363	4.33
446.72	4.38
447.077	4.39
447.433	4.38
447.79	4.44
448.146	4.46
448.503	4.45
448.859	4.47
449.215	4.46
449.572	4.46
449.928	4.49
450.284	4.49
450.641	4.47
450.997	4.51
451.353	4.54
451.709	4.53
452.065	4.53
452.421	4.54
452.777	4.59
453.133	4.63
453.488	4.62
453.844	4.69
454.2	4.67
454.556	4.71
454.911	4.69
455.267	4.65
455.623	4.64
455.978	4.63
456.334	4.68
456.689	4.67
457.045	4.65
457.4	4.65
457.755	4.59
458.111	4.58
458.466	4.57
458.821	4.59
459.176	4.63
459.531	4.66
459.886	4.67
460.242	4.66
460.597	4.68
460.951	4.76
461.306	4.8
461.661	4.83
462.016	4.87
462.371	4.87
462.726	4.85
463.08	4.87
463.435	4.92
463.79	4.96
464.144	4.94
464.499	4.96
464.853	4.94
465.208	4.99
465.562	4.93
465.916	4.96
466.271	5.03
466.625	5.1
466.979	5.04
467.333	5.01
467.688	4.97
468.042	5.02
468.396	5.02
468.75	4.98
469.104	4.97
469.458	5.04
469.811	5.02
470.165	4.96
470.519	4.93
470.873	4.96
471.227	4.95
471.58	4.95
471.934	4.9
472.287	4.86
472.641	4.92
472.995	4.95
473.348	5.01
473.701	5.04
474.055	5.08
474.408	5.07
474.761	5.15
475.115	5.15
475.468	5.16
475.821	5.24
476.174	5.22
476.527	5.19
476.88	5.13
477.233	5.1
477.586	5.13
477.939	5.15
478.292	5.17
478.645	5.19
478.998	5.21
479.35	5.24
479.703	5.27
480.056	5.3
480.408	5.29
480.761	5.3
481.113	5.33
481.466	5.33
481.818	5.36
482.171	5.41
482.523	5.39
482.875	5.4
483.228	5.43
483.58	5.38
483.932	5.43
484.284	5.47
484.636	5.52
484.988	5.54
485.34	5.56
485.692	5.53
486.044	5.53
486.396	5.57
486.748	5.56
487.1	5.6
487.451	5.64
487.803	5.67
488.155	5.69
488.506	5.7
488.858	5.73
489.209	5.72
489.561	5.75
489.912	5.74
490.264	5.75
490.615	5.79
490.966	5.82
491.318	5.84
491.669	5.84
492.02	5.85
492.371	5.86
492.722	5.86
493.073	5.89
493.424	5.91
493.775	5.86
494.126	5.86
494.477	5.85
494.828	5.84
495.179	5.85
495.53	5.86
495.88	5.88
496.231	5.89
496.582	5.87
496.932	5.89
497.283	5.9
497.633	6
497.984	6.05
498.334	6.06
498.684	6.06
499.035	6.05
499.385	6.07
499.735	6.09
500.086	6.12
500.436	6.18
500.786	6.23
501.136	6.25
501.486	6.29
501.836	6.29
502.186	6.35
502.536	6.33
502.886	6.39
503.235	6.41
503.585	6.42
503.935	6.41
504.285	6.4
504.634	6.47
504.984	6.49
505.333	6.47
505.683	6.46
506.032	6.46
506.382	6.51
506.731	6.47
507.08	6.5
507.43	6.48
507.779	6.52
508.128	6.55
508.477	6.52
508.826	6.55
509.176	6.6
509.525	6.62
509.874	6.66
510.222	6.72
510.571	6.8
510.92	6.84
511.269	6.93
511.618	6.96
511.967	6.98
512.315	6.99
512.664	7.03
513.012	7.05
513.361	7.14
513.71	7.16
514.058	7.14
514.406	7.18
514.755	7.21
515.103	7.21
515.451	7.2
515.8	7.21
516.148	7.27
516.496	7.32
516.844	7.35
517.192	7.36
517.54	7.4
517.888	7.43
518.236	7.39
518.584	7.4
518.932	7.44
519.28	7.52
519.628	7.55
519.975	7.58
520.323	7.58
520.671	7.57
521.018	7.6
521.366	7.62
521.713	7.68
522.061	7.75
522.408	7.79
522.756	7.83
523.103	7.81
523.45	7.84
523.798	7.83
524.145	7.87
524.492	7.94
524.839	7.93
525.186	7.91
525.533	7.87
525.88	7.87
526.227	7.85
526.574	7.89
526.921	7.94
527.268	7.98
527.615	8.04
527.961	8.01
528.308	8.01
528.655	8.05
529.001	8.06
529.348	8.13
529.694	8.18
530.041	8.31
530.387	8.26
530.734	8.28
531.08	8.34
531.426	8.38
531.773	8.42
532.119	8.47
532.465	8.48
532.811	8.59
533.157	8.62
533.503	8.67
533.849	8.62
534.195	8.72
534.541	8.8
534.887	8.8
535.233	8.81
535.579	8.85
535.924	8.88
536.27	8.92
536.616	8.93
536.961	8.97
537.307	8.98
537.652	9.02
537.998	9.02
538.343	9.02
538.689	9
539.034	9.09
539.379	9.12
539.725	9.16
540.07	9.19
540.415	9.23
540.76	9.28
541.105	9.32
541.45	9.46
541.795	9.47
542.14	9.52
542.485	9.59
542.83	9.61
543.175	9.66
543.519	9.68
543.864	9.73
544.209	9.77
544.554	9.8
544.898	9.79
545.243	9.78
545.587	9.83
545.932	9.82
546.276	9.84
546.621	9.89
546.965	9.93
547.309	9.97
547.653	10.01
547.998	10.05
548.342	10.14
548.686	10.23
549.03	10.24
549.374	10.3
549.718	10.36
550.062	10.46
550.406	10.47
550.75	10.46
551.094	10.56
551.437	10.6
551.781	10.62
552.125	10.61
552.468	10.63
552.812	10.65
553.156	10.7
553.499	10.74
553.843	10.68
554.186	10.72
554.529	10.79
554.873	10.77
555.216	10.73
555.559	10.78
555.902	10.8
556.246	10.78
556.589	10.84
556.932	10.8
557.275	10.84
557.618	10.93
557.961	10.98
558.304	10.98
558.646	10.95
558.989	11
559.332	11
559.675	11.04
560.017	11.11
560.36	11.13
560.703	11.19
561.045	11.24
561.388	11.26
561.73	11.24
562.073	11.29
562.415	11.37
562.757	11.43
563.1	11.46
563.442	11.51
563.784	11.5
564.126	11.54
564.468	11.59
564.81	11.62
565.152	11.68
565.494	11.75
565.836	11.76
566.178	11.82
566.52	11.84
566.862	11.92
567.204	11.92
567.545	11.99
567.887	12.01
568.229	11.98
568.57	11.99
568.912	12.03
569.253	12.09
569.595	12.19
569.936	12.26
570.277	12.33
570.619	12.36
570.96	12.44
571.301	12.5
571.642	12.54
571.984	12.64
572.325	12.73
572.666	12.76
573.007	12.78
573.348	12.83
573.689	12.85
574.03	12.9
574.37	12.93
574.711	12.98
575.052	13.02
575.393	13.08
575.733	13.12
576.074	13.15
576.414	13.2
576.755	13.24
577.095	13.27
577.436	13.29
577.776	13.34
578.117	13.4
578.457	13.44
578.797	13.48
579.137	13.52
579.478	13.55
579.818	13.57
580.158	13.6
580.498	13.66
580.838	13.69
581.178	13.76
581.518	13.8
581.858	13.83
582.197	13.83
582.537	13.87
582.877	13.92
583.217	13.95
583.556	13.99
583.896	14.01
584.235	14.04
584.575	14.07
584.914	14.11
585.254	14.14
585.593	14.16
585.933	14.2
586.272	14.22
586.611	14.24
586.95	14.28
587.289	14.29
587.629	14.34
587.968	14.35
588.307	14.38
588.646	14.4
588.985	14.43
589.323	14.49
589.662	14.54
590.001	14.56
590.34	14.58
590.679	14.62
591.017	14.67
591.356	14.71
591.695	14.75
592.033	14.78
592.372	14.84
592.71	14.83
593.048	14.85
593.387	14.86
593.725	14.94
594.063	14.94
594.402	15
594.74	15.04
595.078	15.06
595.416	15.09
595.754	15.11
596.092	15.08
596.43	15.14
596.768	15.17
597.106	15.21
597.444	15.18
597.781	15.22
598.119	15.25
598.457	15.25
598.795	15.27
599.132	15.28
599.47	15.31
599.807	15.35
600.145	15.37
600.482	15.41
600.82	15.42
601.157	15.45
601.494	15.49
601.831	15.5
602.169	15.5
602.506	15.55
602.843	15.6
603.18	15.63
603.517	15.67
603.854	15.71
604.191	15.71
604.528	15.75
604.865	15.78
605.202	15.82
605.538	15.83
605.875	15.9
606.212	15.95
606.548	15.96
606.885	16.03
607.222	16.07
607.558	16.08
607.895	16.1
608.231	16.12
608.567	16.14
608.904	16.16
609.24	16.2
609.576	16.2
609.912	16.19
610.248	16.22
610.585	16.2
610.921	16.21
611.257	16.23
611.593	16.31
611.929	16.35
612.264	16.42
612.6	16.48
612.936	16.48
613.272	16.52
613.608	16.52
613.943	16.51
614.279	16.55
614.614	16.61
614.95	16.63
615.285	16.6
615.621	16.63
615.956	16.65
616.292	16.66
616.627	16.71
616.962	16.71
617.297	16.75
617.632	16.8
617.968	16.84
618.303	16.84
618.638	16.87
618.973	16.89
619.308	16.87
619.643	16.87
619.977	16.91
620.312	16.95
620.647	17.01
620.982	17.04
621.316	17.07
621.651	17.07
621.986	17.11
622.32	17.16
622.655	17.14
622.989	17.18
623.324	17.23
623.658	17.22
623.992	17.22
624.326	17.19
624.661	17.18
624.995	17.22
625.329	17.25
625.663	17.25
625.997	17.23
626.331	17.36
626.665	17.34
626.999	17.34
627.333	17.37
627.667	17.36
628.001	17.36
628.334	17.37
628.668	17.38
629.002	17.39
629.335	17.4
629.669	17.36
630.002	17.3
630.336	17.34
630.669	17.39
631.003	17.41
631.336	17.45
631.669	17.51
632.003	17.51
632.336	17.45
632.669	17.48
633.002	17.49
633.335	17.56
633.668	17.65
634.001	17.69
634.334	17.64
634.667	17.62
635	17.64
635.333	17.66
635.665	17.72
635.998	17.78
636.331	17.81
636.663	17.82
636.996	17.89
637.328	17.85
637.661	17.83
637.993	17.9
638.326	17.87
638.658	17.85
638.99	17.93
639.323	17.95
639.655	17.97
639.987	18.03
640.319	18.06
640.651	18
640.983	18.08
641.315	18.05
641.647	18.12
641.979	18.2
642.311	18.25
642.643	18.19
642.975	18.24
643.306	18.26
643.638	18.19
643.97	18.19
644.301	18.17
644.633	18.1
644.964	18.2
645.296	18.13
645.627	18.13
645.959	18.12
646.29	18.09
646.621	18.1
646.952	18.09
647.284	18.2
647.615	18.22
647.946	18.3
648.277	18.31
648.608	18.38
648.939	18.43
649.27	18.47
649.601	18.5
649.931	18.5
650.262	18.54
650.593	18.62
650.924	18.59
651.254	18.64
651.585	18.72
651.915	18.86
652.246	18.82
652.576	18.8
652.907	18.81
653.237	18.89
653.568	18.93
653.898	18.89
654.228	18.88
654.558	18.9
654.888	18.95
655.219	19.04
655.549	19.25
655.879	19.57
656.209	19.96
656.539	20.3
656.868	20.57
657.198	20.78
657.528	20.92
657.858	21.04
658.188	21.12
658.517	21.18
658.847	21.21
659.176	21.24
659.506	21.24
659.835	21.21
660.165	21.18
660.494	21.14
660.824	21.13
661.153	21.12
661.482	21.09
661.811	21.06
662.14	21
662.47	20.97
662.799	20.92
663.128	20.88
663.457	20.88
663.786	20.85
664.114	20.8
664.443	20.7
664.772	20.6
665.101	20.46
665.43	20.35
665.758	20.27
666.087	20.15
666.415	20.04
666.744	20.01
667.072	19.94
667.401	19.91
667.729	19.88
668.058	19.89
668.386	19.95
668.714	20.05
669.042	20.08
669.371	20.22
669.699	20.25
670.027	20.2
670.355	20.17
670.683	20.21
671.011	20.25
671.339	20.2
671.666	20.2
671.994	20.23
672.322	20.25
672.65	20.27
672.977	20.28
673.305	20.39
673.633	20.5
673.96	20.52
674.288	20.51
674.615	20.55
674.943	20.66
675.27	20.7
675.597	20.71
675.924	20.72
676.252	20.8
676.579	20.79
676.906	20.83
677.233	20.85
677.56	20.88
677.887	20.94
678.214	20.96
678.541	20.99
678.868	20.98
679.195	21.03
679.521	21.07
679.848	21.06
680.175	21.12
680.501	21.06
680.828	21.11
681.154	21.18
681.481	21.16
681.807	21.21
682.134	21.25
682.46	21.34
682.787	21.4
683.113	21.43
683.439	21.51
683.765	21.5
684.091	21.55
684.417	21.5
684.743	21.52
685.069	21.57
685.395	21.61
685.721	21.64
686.047	21.7
686.373	21.77
686.699	21.84
687.024	21.93
687.35	22.01
687.676	22.09
688.001	22.29
688.327	22.37
688.652	22.47
688.978	22.48
689.303	22.47
689.629	22.54
689.954	22.58
690.279	22.62
690.604	22.61
690.93	22.74
691.255	22.77
691.58	22.71
691.905	22.76
692.23	22.89
692.555	22.92
692.88	22.99
693.204	23.01
693.529	23.02
693.854	23.03
694.179	22.96
694.503	22.89
694.828	22.96
695.153	23.03
695.477	23.08
695.802	23.02
696.126	23.1
696.451	23.07
696.775	23.09
697.099	23.05
697.423	23.16
697.748	23.23
698.072	23.32
698.396	23.28
698.72	23.3
699.044	23.29
699.368	23.34
699.692	23.34
700.016	23.47
700.34	23.56
700.664	23.69
700.987	23.68
701.311	23.68
701.635	23.69
701.958	23.68
702.282	23.68
702.606	23.63
702.929	23.63
703.252	23.58
703.576	23.53
703.899	23.44
704.223	23.42
704.546	23.43
704.869	23.58
705.192	23.51
705.515	23.61
705.838	23.61
706.161	23.7
706.484	23.8
706.807	23.91
707.13	24.01
707.453	24.06
707.776	24.11
708.099	24.15
708.421	24.11
708.744	24.29
709.067	24.27
709.389	24.3
709.712	24.38
710.034	24.36
710.357	24.4
710.679	24.38
711.001	24.4
711.324	24.47
711.646	24.45
711.968	24.47
712.29	24.47
712.612	24.52
712.935	24.56
713.257	24.51
713.579	24.53
713.9	24.54
714.222	24.62
714.544	24.75
714.866	24.75
715.188	24.85
715.509	24.86
715.831	24.85
716.153	24.94
716.474	25.03
716.796	25.14
717.117	25.18
717.439	25.23
717.76	25.21
718.081	25.11
718.403	25.08
718.724	25.09
719.045	25.17
719.366	25.18
719.687	25.12
720.009	25.02
720.33	24.94
720.651	24.98
720.971	25.05
721.292	25.17
721.613	25.17
721.934	25.31
722.255	25.4
722.575	25.44
722.896	25.5
723.217	25.61
723.537	25.7
723.858	25.89
724.178	25.94
724.499	25.9
724.819	25.93
725.139	25.98
725.46	25.97
725.78	25.89
726.1	25.85
726.42	25.94
726.74	25.83
727.06	25.85
727.38	25.8
727.7	25.84
728.02	25.89
728.34	25.86
728.66	25.95
728.98	26.1
729.299	26.08
729.619	26.19
729.939	26.18
730.258	26.22
730.578	26.39
730.897	26.45
731.217	26.43
731.536	26.43
731.856	26.45
732.175	26.51
732.494	26.5
732.814	26.64
733.133	26.71
733.452	26.77
733.771	26.95
734.09	26.83
734.409	26.84
734.728	26.93
735.047	27.04
735.366	27.16
735.684	27.11
736.003	27.05
736.322	27.15
736.641	27.2
736.959	27.23
737.278	27.24
737.596	27.32
737.915	27.4
738.233	27.43
738.552	27.47
738.87	27.46
739.188	27.48
739.507	27.5
739.825	27.47
740.143	27.51
740.461	27.58
740.779	27.58
741.097	27.63
741.415	27.6
741.733	28.08
742.051	28.14
742.369	28.04
742.687	28.09
743.004	28.13
743.322	28.05
743.64	27.96
743.957	27.85
744.275	27.84
744.593	27.81
744.91	27.87
745.227	27.29
745.545	27.16
745.862	27.34
746.179	27.41
746.497	27.47
746.814	27.53
747.131	27.7
747.448	27.86
747.765	27.91
748.082	27.95
748.399	27.91
748.716	27.95
749.033	28.11
749.35	28.12
749.667	28.21
749.983	28.37
750.3	28.43
750.617	28.4
750.933	28.39
751.25	28.37
751.566	28.27
751.883	28.5
752.199	28.7
752.516	28.75
752.832	28.84
753.148	29
753.464	28.88
753.781	28.98
754.097	28.91
754.413	29.02
754.729	29.01
755.045	29.16
755.361	29.11
755.677	29.1
755.992	28.98
756.308	28.94
756.624	28.74
756.94	28.8
757.255	28.79
757.571	28.98
757.887	29.08
758.202	29.26
758.518	29.28
758.833	29.24
759.148	29.14
759.464	29.38
759.779	29.51
760.094	29.73
760.41	29.95
760.725	29.99
761.04	29.98
761.355	29.99
761.67	30.08
761.985	30.23
762.3	30.32
762.615	30.49
762.93	30.57
763.244	30.55
763.559	30.45
763.874	30.37
764.188	30.39
764.503	30.48
764.818	30.43
765.132	30.4
765.447	30.44
765.761	30.45
766.075	30.47
766.39	30.41
766.704	30.4
767.018	30.5
767.332	30.53
767.646	30.57
767.961	30.54
768.275	30.58
768.589	30.58
768.903	30.47
769.216	30.47
769.53	30.42
769.844	30.42
770.158	30.46
770.472	30.39
770.785	30.53
771.099	30.53
771.413	30.61
771.726	30.71
772.04	30.76
772.353	30.94
772.666	31.01
772.98	31.1
773.293	31.13
773.606	31.25
773.919	31.31
774.233	31.21
774.546	31.2
774.859	31.21
775.172	31.16
775.485	31.21
775.798	31.17
776.111	31.17
776.423	31.06
776.736	30.94
777.049	30.89
777.362	31.07
777.674	31.1
777.987	31.21
778.299	31.14
778.612	31.12
778.924	31.07
779.237	31.05
779.549	31.12
779.862	31.14
780.174	31.28
780.486	31.44
780.798	31.36
781.11	31.37
781.422	31.47
781.735	31.42
782.046	31.62
782.358	31.76
782.67	31.77
782.982	31.73
783.294	31.95
783.606	31.95
783.917	31.97
784.229	32.08
784.541	32
784.852	31.91
785.164	32.14
785.475	32.26
785.787	32.37
786.098	32.48
786.41	32.51
786.721	32.51
787.032	32.58
787.343	32.58
787.654	32.61
787.966	32.74
788.277	32.78
788.588	32.86
788.899	32.69
789.209	32.63
789.52	32.58
789.831	32.74
790.142	32.69
790.453	32.89
790.763	32.77
791.074	32.7
791.385	32.77
791.695	32.9
792.006	32.8
792.316	32.8
792.626	32.83
792.937	33.02
793.247	33.11
793.557	33.14
793.868	32.97
794.178	33.11
794.488	33.33
794.798	33.21
795.108	33.18
795.418	33.21
795.728	33.47
796.038	33.38
796.348	33.38
796.657	33.34
796.967	33.54
797.277	33.71
797.587	33.84
797.896	33.62
798.206	33.8
798.515	33.8
798.825	33.94
799.134	33.69
799.444	33.99
799.753	33.82
800.062	33.78
800.371	33.78
800.681	33.78
800.99	33.69
801.299	33.77
801.608	33.97
801.917	34.09
802.226	34.1
802.535	34.47
802.844	34.25
803.152	34.41
803.461	34.43
803.77	34.56
804.078	34.42
804.387	34.59
804.696	34.5
805.004	34.25
805.313	34.03
805.621	33.93
805.93	33.47
806.238	33.48
806.546	33.6
806.854	33.62
807.163	33.52
807.471	33.69
807.779	33.43
808.087	34.01
808.395	34.1
808.703	34.5
809.011	34.29
809.319	34.76
809.626	35.05
809.934	34.85
810.242	34.79
810.55	34.65
810.857	34.52
811.165	34.52
811.472	34.06
811.78	34.14
812.087	34.03
812.395	34.43
812.702	34.45
813.009	34.18
813.317	34.49
813.624	34.6
813.931	34.71
814.238	34.59
814.545	34.87
814.852	34.9
815.159	34.73
815.466	34.6
815.773	34.71
816.08	34.75
816.387	34.73
816.693	34.69
817	34.35
817.307	34.29
817.613	34.69
817.92	34.81
818.226	34.82
818.533	35.04
818.839	35.2
819.146	34.95
819.452	34.48
819.758	34.51
820.064	34.38
820.371	35.01
820.677	35.45
820.983	35.52
821.289	35.41
821.595	35.58
821.901	35.62
822.207	35.6
822.512	36.05
822.818	36.48
823.124	36.85
823.43	37.01
823.735	36.97
824.041	36.93
824.347	37.09
824.652	37.17
824.957	37.2
825.263	37.16
825.568	36.95
825.874	36.44
826.179	36.22
826.484	36.07
826.789	36.41
827.094	35.9
827.399	35.74
827.705	35.36
828.01	35.74
828.314	35.9
828.619	36.08
828.924	36.29
829.229	36.53
829.534	36.81
829.838	36.82
830.143	36.39
830.448	36.73
830.752	36.85
831.057	37.38
831.361	36.96
831.666	36.85
831.97	36.75
832.274	36.96
832.579	36.9
832.883	36.95
833.187	37.03
833.491	37.2
833.795	37.28
834.099	37.12
834.403	36.62
834.707	36.48
835.011	36.71
835.315	36.87
835.619	36.5
835.923	36.23
836.226	36.16
836.53	35.98
836.834	36.41
837.137	36.24
837.441	36.84
837.744	37.07
838.048	37.6
838.351	36.97
838.654	36.86
838.958	37.3
839.261	37.52
839.564	37.4
839.867	37.26
840.17	36.86
840.473	37.15
840.776	36.5
841.079	36.46
841.382	36.11
841.685	36.31
841.988	36.09
842.291	35.99
842.593	36.49
842.896	36.53
843.199	36.93
843.501	36.89
843.804	36.76
844.106	36.79
844.409	36.48
844.711	36.41
845.013	37.06
845.316	36.99
845.618	37.03
845.92	36.95
846.222	37.14
846.524	36.91
846.826	37.4
847.128	38.03
847.43	38.29
847.732	38.32
848.034	38.65
848.336	38.3
848.638	39.03
848.939	38.9
849.241	38.46
849.543	38.6
849.844	38.06
850.146	37.57
850.447	37.18
850.749	36.48
851.05	36.61
851.351	36.35
851.653	36.44
851.954	36.09
852.255	36.36
852.556	35.99
852.857	35.65
853.158	36.17
853.459	36.62
853.76	36.77
854.061	37.5
854.362	37.3
854.663	37.46
854.964	37.36
855.264	37.36
855.565	37.13
855.866	37.97
856.166	38.05
856.467	38.42
856.767	38.63
857.068	38.64
857.368	38.52
857.668	39.17
857.969	39.62
858.269	40.4
858.569	40.23
858.869	40.62
859.169	40.61
859.469	40.02
859.769	39.75
860.069	40.02
860.369	39.61
860.669	40.41
860.969	39.88
861.269	38.93
861.568	37.92
861.868	38.46
862.168	37.91
862.467	38.45
862.767	38.32
863.066	38.62
863.366	37.85
863.665	38.82
863.964	37.7
864.264	37.03
864.563	36.84
864.862	36.4
865.161	35.69
865.46	36.02
865.759	35.03
866.058	35.98
866.357	36.26
866.656	35.01
866.955	34.01
867.254	34.98
867.552	36.04
867.851	37.54
868.15	38.13
868.448	38.53
868.747	38
869.045	38.35
869.344	38.53
869.642	37.84
869.941	39.48
870.239	39.32
870.537	37.94
870.836	36.83
871.134	36.39
871.432	34.9
871.73	33.86
872.028	33.74
872.326	34.93
872.624	35.47
872.922	36.32
873.22	36.02
873.517	38.38
873.815	39.79
874.113	41.14
874.411	40.73
874.708	42.49
875.006	42.65
875.303	43.47
875.601	42.88
875.898	41.5
876.195	41.05
876.493	41.52
876.79	39.15
877.087	37.41
877.384	37.45
877.682	37.68
877.979	37.47
878.276	38.19
878.573	37.84
878.87	36.56
879.166	37.69
879.463	37.21
