Data from polyxenes_ven_HW_orange_right_3_Reflection__0__21.txt Node

Date: Sun Dec 11 11:22:39 EST 2022
User: abbyrobinson
Spectrometer: USB2G8287
Scans to average: 10
Trigger mode: 4
Integration Time (sec): 1.000000E-1
Electric dark correction enabled: true
Boxcar width: 5
XAxis mode: Wavelengths
Number of Pixels in Spectrum: 2048
>>>>>Begin Spectral Data<<<<<
177.272	74.71
177.658	71.34
178.044	69.07
178.43	56.7
178.816	45.14
179.203	79.47
179.589	338.38
179.975	46.03
180.361	-107.11
180.747	-378.52
181.133	-176.35
181.519	-109.36
181.904	71.34
182.29	122.85
182.676	87.58
183.062	76.78
183.447	86.36
183.833	60.96
184.219	38.68
184.604	39.3
184.99	58.43
185.375	146.35
185.761	-6.08
186.146	34.25
186.531	59.27
186.917	49.8
187.302	37.09
187.687	33.41
188.073	32.09
188.458	29.68
188.843	29.62
189.228	29.7
189.613	26.51
189.998	26.4
190.383	23.19
190.768	18.86
191.153	21.78
191.538	24.07
191.923	25.46
192.307	21.26
192.692	17.88
193.077	14.99
193.461	14.14
193.846	17.13
194.231	14.51
194.615	20.81
195	20.43
195.384	19.98
195.769	22.27
196.153	21.08
196.537	24.24
196.922	23.58
197.306	22.63
197.69	23.56
198.074	20.22
198.458	21.56
198.843	21.59
199.227	21.19
199.611	19.74
199.995	18.34
200.379	18.3
200.763	17.78
201.146	21.54
201.53	24
201.914	20.96
202.298	19.7
202.681	22.97
203.065	23.67
203.449	26.62
203.832	25.55
204.216	25.54
204.599	31.37
204.983	30.99
205.366	26.53
205.75	27.43
206.133	26.61
206.516	29.71
206.9	27.03
207.283	26.14
207.666	25.63
208.049	27.34
208.432	30.43
208.815	25
209.198	23.65
209.581	25.79
209.964	25.33
210.347	27.74
210.73	25.29
211.113	24.65
211.496	25.42
211.879	25.47
212.261	23.33
212.644	20.17
213.027	20.58
213.409	18.81
213.792	19.04
214.174	19.41
214.557	21.75
214.939	21.26
215.322	20.01
215.704	17.58
216.086	15.43
216.469	14.58
216.851	17.15
217.233	17.64
217.615	19.41
217.997	19.12
218.379	15.6
218.761	12.27
219.143	14.89
219.525	15.91
219.907	15.18
220.289	15.57
220.671	16.99
221.053	15.74
221.435	14.79
221.816	15.1
222.198	15.08
222.58	15.73
222.961	16.66
223.343	14.11
223.724	14.46
224.106	15.25
224.487	16.38
224.869	17.27
225.25	16.08
225.631	13.69
226.013	14.09
226.394	13.98
226.775	13.55
227.156	13.06
227.537	13.3
227.919	12.67
228.3	13.51
228.681	12.06
229.062	11.59
229.442	10.99
229.823	11.86
230.204	11.47
230.585	11.06
230.966	10.84
231.347	10.68
231.727	10.46
232.108	9.98
232.488	9.35
232.869	9.17
233.25	8.99
233.63	8.95
234.01	8.9
234.391	8.4
234.771	8.41
235.152	8.59
235.532	8.53
235.912	8.33
236.292	8.51
236.672	8.14
237.053	8.16
237.433	8.08
237.813	8.19
238.193	7.85
238.573	7.91
238.953	7.59
239.333	7.51
239.712	7.26
240.092	7.28
240.472	7.16
240.852	7.31
241.231	7.23
241.611	6.98
241.991	6.94
242.37	7
242.75	6.88
243.129	6.79
243.509	6.6
243.888	6.56
244.267	6.49
244.647	6.42
245.026	6.31
245.405	6.3
245.784	6.32
246.164	6.27
246.543	6.18
246.922	6.21
247.301	6.22
247.68	6.16
248.059	6.18
248.438	6.23
248.817	6.26
249.195	6.24
249.574	6.17
249.953	6.15
250.332	6.1
250.71	6.07
251.089	6.02
251.468	6.04
251.846	6.11
252.225	6.07
252.603	6
252.982	5.95
253.36	5.91
253.738	5.92
254.117	5.95
254.495	5.92
254.873	5.93
255.251	5.92
255.63	5.97
256.008	5.93
256.386	5.94
256.764	5.9
257.142	5.88
257.52	5.89
257.898	5.88
258.276	5.87
258.653	5.87
259.031	5.88
259.409	5.83
259.787	5.75
260.164	5.79
260.542	5.78
260.92	5.78
261.297	5.75
261.675	5.82
262.052	5.83
262.43	5.78
262.807	5.83
263.184	5.83
263.562	5.83
263.939	5.85
264.316	5.85
264.693	5.87
265.07	5.92
265.448	5.95
265.825	5.92
266.202	5.89
266.579	5.92
266.956	5.9
267.333	5.87
267.709	5.91
268.086	5.9
268.463	5.89
268.84	5.85
269.216	5.81
269.593	5.76
269.97	5.75
270.346	5.82
270.723	5.81
271.099	5.8
271.476	5.85
271.852	5.8
272.229	5.78
272.605	5.77
272.981	5.78
273.358	5.86
273.734	5.97
274.11	5.95
274.486	5.89
274.862	5.91
275.238	5.94
275.614	5.91
275.99	5.95
276.366	5.88
276.742	5.86
277.118	5.85
277.494	5.81
277.87	5.78
278.245	5.77
278.621	5.79
278.997	5.71
279.372	5.64
279.748	5.65
280.123	5.68
280.499	5.72
280.874	5.72
281.25	5.73
281.625	5.68
282	5.62
282.376	5.6
282.751	5.62
283.126	5.67
283.501	5.68
283.876	5.65
284.252	5.6
284.627	5.65
285.002	5.67
285.377	5.66
285.751	5.67
286.126	5.68
286.501	5.7
286.876	5.64
287.251	5.61
287.625	5.61
288	5.62
288.375	5.64
288.749	5.63
289.124	5.61
289.498	5.58
289.873	5.58
290.247	5.58
290.622	5.53
290.996	5.56
291.37	5.58
291.745	5.57
292.119	5.58
292.493	5.54
292.867	5.51
293.241	5.47
293.616	5.48
293.99	5.48
294.364	5.48
294.737	5.52
295.111	5.48
295.485	5.47
295.859	5.46
296.233	5.45
296.607	5.49
296.98	5.48
297.354	5.5
297.728	5.51
298.101	5.48
298.475	5.42
298.848	5.35
299.222	5.33
299.595	5.25
299.968	5.23
300.342	5.2
300.715	5.19
301.088	5.17
301.462	5.16
301.835	5.15
302.208	5.12
302.581	5.12
302.954	5.14
303.327	5.13
303.7	5.11
304.073	5.02
304.446	5.03
304.819	4.98
305.192	4.94
305.564	4.93
305.937	4.84
306.31	4.78
306.682	4.78
307.055	4.72
307.428	4.68
307.8	4.7
308.173	4.74
308.545	4.65
308.917	4.6
309.29	4.55
309.662	4.45
310.034	4.5
310.407	4.54
310.779	4.51
311.151	4.5
311.523	4.48
311.895	4.42
312.267	4.38
312.639	4.35
313.011	4.37
313.383	4.42
313.755	4.44
314.127	4.42
314.498	4.42
314.87	4.39
315.242	4.4
315.614	4.35
315.985	4.39
316.357	4.35
316.728	4.37
317.1	4.34
317.471	4.24
317.843	4.14
318.214	4.04
318.585	3.98
318.957	3.92
319.328	3.86
319.699	3.82
320.07	3.81
320.441	3.82
320.813	3.79
321.184	3.78
321.555	3.76
321.926	3.84
322.297	3.93
322.667	3.92
323.038	3.93
323.409	3.96
323.78	3.98
324.151	3.94
324.521	3.9
324.892	3.87
325.262	3.85
325.633	3.87
326.004	3.83
326.374	3.75
326.744	3.72
327.115	3.69
327.485	3.62
327.855	3.63
328.226	3.64
328.596	3.65
328.966	3.62
329.336	3.59
329.706	3.58
330.076	3.57
330.447	3.55
330.816	3.57
331.186	3.59
331.556	3.57
331.926	3.61
332.296	3.58
332.666	3.54
333.036	3.58
333.405	3.54
333.775	3.49
334.144	3.47
334.514	3.48
334.884	3.48
335.253	3.47
335.623	3.47
335.992	3.44
336.361	3.44
336.731	3.47
337.1	3.49
337.469	3.55
337.838	3.63
338.208	3.65
338.577	3.68
338.946	3.65
339.315	3.65
339.684	3.71
340.053	3.68
340.422	3.66
340.79	3.65
341.159	3.67
341.528	3.65
341.897	3.62
342.266	3.66
342.634	3.63
343.003	3.67
343.371	3.59
343.74	3.55
344.108	3.56
344.477	3.6
344.845	3.59
345.214	3.49
345.582	3.51
345.95	3.47
346.319	3.41
346.687	3.4
347.055	3.32
347.423	3.36
347.791	3.37
348.159	3.34
348.527	3.32
348.895	3.31
349.263	3.36
349.631	3.37
349.999	3.33
350.367	3.3
350.734	3.3
351.102	3.33
351.47	3.33
351.837	3.31
352.205	3.35
352.573	3.32
352.94	3.28
353.308	3.22
353.675	3.19
354.042	3.24
354.41	3.3
354.777	3.27
355.144	3.3
355.511	3.33
355.879	3.36
356.246	3.33
356.613	3.3
356.98	3.29
357.347	3.34
357.714	3.24
358.081	3.19
358.448	3.17
358.815	3.19
359.181	3.11
359.548	3.09
359.915	3.06
360.282	3.04
360.648	3.08
361.015	3.14
361.381	3.1
361.748	3.14
362.114	3.16
362.481	3.13
362.847	3.12
363.214	3.09
363.58	3.06
363.946	3.03
364.312	3.03
364.678	2.97
365.045	2.9
365.411	2.85
365.777	2.84
366.143	2.83
366.509	2.84
366.875	2.83
367.241	2.86
367.606	2.85
367.972	2.81
368.338	2.77
368.704	2.81
369.069	2.83
369.435	2.85
369.801	2.8
370.166	2.85
370.532	2.79
370.897	2.74
371.263	2.67
371.628	2.68
371.993	2.69
372.359	2.74
372.724	2.74
373.089	2.8
373.454	2.82
373.82	2.87
374.185	2.82
374.55	2.85
374.915	2.83
375.28	2.88
375.645	2.88
376.01	2.85
376.374	2.78
376.739	2.73
377.104	2.7
377.469	2.72
377.833	2.68
378.198	2.68
378.563	2.7
378.927	2.74
379.292	2.78
379.656	2.78
380.021	2.8
380.385	2.85
380.749	2.9
381.114	2.88
381.478	2.85
381.842	2.88
382.206	2.91
382.571	2.91
382.935	2.89
383.299	2.85
383.663	2.86
384.027	2.84
384.391	2.81
384.755	2.82
385.118	2.81
385.482	2.83
385.846	2.84
386.21	2.81
386.573	2.77
386.937	2.8
387.301	2.76
387.664	2.73
388.028	2.74
388.391	2.76
388.755	2.73
389.118	2.76
389.481	2.71
389.845	2.69
390.208	2.67
390.571	2.64
390.934	2.6
391.298	2.59
391.661	2.63
392.024	2.64
392.387	2.61
392.75	2.59
393.113	2.53
393.476	2.53
393.838	2.52
394.201	2.54
394.564	2.56
394.927	2.59
395.289	2.64
395.652	2.62
396.015	2.63
396.377	2.65
396.74	2.68
397.102	2.66
397.465	2.66
397.827	2.65
398.189	2.63
398.552	2.63
398.914	2.62
399.276	2.67
399.638	2.68
400	2.64
400.363	2.64
400.725	2.67
401.087	2.7
401.449	2.74
401.81	2.77
402.172	2.77
402.534	2.77
402.896	2.76
403.258	2.73
403.619	2.7
403.981	2.75
404.343	2.72
404.704	2.71
405.066	2.72
405.427	2.72
405.789	2.69
406.15	2.72
406.512	2.73
406.873	2.72
407.234	2.69
407.596	2.69
407.957	2.69
408.318	2.73
408.679	2.73
409.04	2.72
409.401	2.72
409.762	2.72
410.123	2.72
410.484	2.74
410.845	2.74
411.206	2.76
411.567	2.8
411.927	2.81
412.288	2.82
412.649	2.76
413.009	2.7
413.37	2.73
413.731	2.77
414.091	2.78
414.452	2.74
414.812	2.74
415.172	2.72
415.533	2.68
415.893	2.67
416.253	2.61
416.613	2.69
416.974	2.73
417.334	2.71
417.694	2.71
418.054	2.69
418.414	2.72
418.774	2.74
419.134	2.77
419.494	2.77
419.853	2.79
420.213	2.83
420.573	2.84
420.933	2.8
421.292	2.8
421.652	2.87
422.011	2.9
422.371	2.92
422.73	2.93
423.09	2.95
423.449	2.98
423.809	2.94
424.168	2.92
424.527	2.9
424.887	2.96
425.246	2.96
425.605	2.93
425.964	2.89
426.323	2.87
426.682	2.87
427.041	2.83
427.4	2.83
427.759	2.83
428.118	2.85
428.477	2.85
428.835	2.85
429.194	2.88
429.553	2.89
429.911	2.91
430.27	2.95
430.629	2.94
430.987	2.96
431.346	2.96
431.704	3.01
432.062	3.02
432.421	3
432.779	2.98
433.137	2.95
433.496	2.94
433.854	2.96
434.212	2.99
434.57	3.02
434.928	3.02
435.286	3.03
435.644	3.01
436.002	3.02
436.36	3.07
436.718	3.08
437.075	3.12
437.433	3.14
437.791	3.13
438.149	3.12
438.506	3.13
438.864	3.15
439.221	3.16
439.579	3.16
439.936	3.16
440.294	3.17
440.651	3.21
441.009	3.18
441.366	3.15
441.723	3.15
442.08	3.15
442.437	3.16
442.795	3.15
443.152	3.15
443.509	3.14
443.866	3.12
444.223	3.14
444.58	3.15
444.936	3.21
445.293	3.26
445.65	3.29
446.007	3.29
446.363	3.28
446.72	3.3
447.077	3.29
447.433	3.34
447.79	3.37
448.146	3.38
448.503	3.38
448.859	3.34
449.215	3.31
449.572	3.29
449.928	3.31
450.284	3.3
450.641	3.34
450.997	3.39
451.353	3.43
451.709	3.46
452.065	3.48
452.421	3.49
452.777	3.5
453.133	3.54
453.488	3.59
453.844	3.63
454.2	3.66
454.556	3.67
454.911	3.71
455.267	3.74
455.623	3.74
455.978	3.73
456.334	3.77
456.689	3.82
457.045	3.83
457.4	3.83
457.755	3.83
458.111	3.88
458.466	3.89
458.821	3.89
459.176	3.86
459.531	3.88
459.886	3.92
460.242	3.93
460.597	3.95
460.951	3.91
461.306	3.94
461.661	3.94
462.016	3.96
462.371	3.97
462.726	3.98
463.08	4
463.435	4
463.79	4.01
464.144	4.06
464.499	4.07
464.853	4.17
465.208	4.22
465.562	4.24
465.916	4.22
466.271	4.28
466.625	4.32
466.979	4.36
467.333	4.39
467.688	4.44
468.042	4.42
468.396	4.49
468.75	4.5
469.104	4.49
469.458	4.5
469.811	4.55
470.165	4.57
470.519	4.56
470.873	4.57
471.227	4.58
471.58	4.55
471.934	4.57
472.287	4.56
472.641	4.6
472.995	4.62
473.348	4.67
473.701	4.73
474.055	4.77
474.408	4.82
474.761	4.89
475.115	4.89
475.468	4.95
475.821	4.95
476.174	4.99
476.527	4.95
476.88	4.94
477.233	4.98
477.586	4.97
477.939	4.95
478.292	4.95
478.645	4.94
478.998	4.96
479.35	4.96
479.703	5.02
480.056	5.02
480.408	5.1
480.761	5.17
481.113	5.18
481.466	5.23
481.818	5.23
482.171	5.27
482.523	5.28
482.875	5.32
483.228	5.37
483.58	5.38
483.932	5.41
484.284	5.46
484.636	5.52
484.988	5.55
485.34	5.61
485.692	5.67
486.044	5.71
486.396	5.77
486.748	5.81
487.1	5.87
487.451	5.89
487.803	5.94
488.155	5.92
488.506	5.92
488.858	5.95
489.209	5.95
489.561	5.96
489.912	6
490.264	6.03
490.615	6.04
490.966	6.04
491.318	6.1
491.669	6.12
492.02	6.22
492.371	6.29
492.722	6.34
493.073	6.41
493.424	6.5
493.775	6.55
494.126	6.6
494.477	6.68
494.828	6.76
495.179	6.78
495.53	6.85
495.88	6.86
496.231	6.88
496.582	6.93
496.932	6.99
497.283	7.01
497.633	7.07
497.984	7.14
498.334	7.18
498.684	7.23
499.035	7.34
499.385	7.4
499.735	7.51
500.086	7.57
500.436	7.62
500.786	7.65
501.136	7.75
501.486	7.82
501.836	7.87
502.186	7.97
502.536	8.05
502.886	8.1
503.235	8.18
503.585	8.22
503.935	8.3
504.285	8.38
504.634	8.51
504.984	8.59
505.333	8.69
505.683	8.75
506.032	8.81
506.382	8.86
506.731	8.92
507.08	9
507.43	9.1
507.779	9.18
508.128	9.29
508.477	9.37
508.826	9.41
509.176	9.45
509.525	9.54
509.874	9.61
510.222	9.67
510.571	9.74
510.92	9.82
511.269	9.87
511.618	9.95
511.967	10.02
512.315	10.06
512.664	10.19
513.012	10.31
513.361	10.44
513.71	10.57
514.058	10.76
514.406	10.86
514.755	10.89
515.103	11.01
515.451	11.14
515.8	11.23
516.148	11.36
516.496	11.44
516.844	11.53
517.192	11.61
517.54	11.71
517.888	11.75
518.236	11.87
518.584	12.06
518.932	12.15
519.28	12.26
519.628	12.41
519.975	12.51
520.323	12.66
520.671	12.7
521.018	12.79
521.366	12.91
521.713	13
522.061	13.08
522.408	13.18
522.756	13.35
523.103	13.49
523.45	13.6
523.798	13.71
524.145	13.81
524.492	14.01
524.839	14.14
525.186	14.25
525.533	14.42
525.88	14.62
526.227	14.73
526.574	14.84
526.921	14.95
527.268	15.02
527.615	15.14
527.961	15.33
528.308	15.44
528.655	15.57
529.001	15.69
529.348	15.87
529.694	15.99
530.041	16.15
530.387	16.3
530.734	16.39
531.08	16.63
531.426	16.81
531.773	16.93
532.119	17.12
532.465	17.25
532.811	17.48
533.157	17.62
533.503	17.78
533.849	17.98
534.195	18.15
534.541	18.36
534.887	18.51
535.233	18.67
535.579	18.82
535.924	19.04
536.27	19.23
536.616	19.35
536.961	19.48
537.307	19.57
537.652	19.66
537.998	19.8
538.343	19.89
538.689	20
539.034	20.21
539.379	20.33
539.725	20.47
540.07	20.63
540.415	20.77
540.76	20.98
541.105	21.15
541.45	21.32
541.795	21.47
542.14	21.71
542.485	21.89
542.83	22
543.175	22.15
543.519	22.27
543.864	22.43
544.209	22.59
544.554	22.71
544.898	22.95
545.243	23.15
545.587	23.3
545.932	23.45
546.276	23.6
546.621	23.75
546.965	23.94
547.309	24.09
547.653	24.24
547.998	24.39
548.342	24.52
548.686	24.6
549.03	24.75
549.374	24.89
549.718	25.03
550.062	25.17
550.406	25.32
550.75	25.48
551.094	25.62
551.437	25.77
551.781	25.95
552.125	26.16
552.468	26.31
552.812	26.48
553.156	26.67
553.499	26.84
553.843	27
554.186	27.12
554.529	27.3
554.873	27.5
555.216	27.66
555.559	27.84
555.902	27.95
556.246	28.12
556.589	28.28
556.932	28.39
557.275	28.54
557.618	28.75
557.961	28.93
558.304	29.07
558.646	29.19
558.989	29.34
559.332	29.44
559.675	29.58
560.017	29.72
560.36	29.78
560.703	29.99
561.045	30.09
561.388	30.16
561.73	30.3
562.073	30.42
562.415	30.59
562.757	30.7
563.1	30.84
563.442	30.98
563.784	31.11
564.126	31.33
564.468	31.45
564.81	31.61
565.152	31.76
565.494	31.93
565.836	32.09
566.178	32.19
566.52	32.31
566.862	32.49
567.204	32.67
567.545	32.83
567.887	33.02
568.229	33.15
568.57	33.3
568.912	33.44
569.253	33.55
569.595	33.64
569.936	33.75
570.277	33.95
570.619	34.03
570.96	34.16
571.301	34.27
571.642	34.35
571.984	34.52
572.325	34.63
572.666	34.78
573.007	34.85
573.348	34.98
573.689	35.11
574.03	35.24
574.37	35.4
574.711	35.46
575.052	35.58
575.393	35.68
575.733	35.76
576.074	35.89
576.414	35.98
576.755	36.12
577.095	36.24
577.436	36.35
577.776	36.44
578.117	36.56
578.457	36.7
578.797	36.82
579.137	36.96
579.478	37.06
579.818	37.14
580.158	37.27
580.498	37.42
580.838	37.52
581.178	37.64
581.518	37.74
581.858	37.85
582.197	37.99
582.537	38.1
582.877	38.22
583.217	38.37
583.556	38.48
583.896	38.57
584.235	38.64
584.575	38.76
584.914	38.86
585.254	38.98
585.593	39.08
585.933	39.18
586.272	39.28
586.611	39.39
586.95	39.47
587.289	39.59
587.629	39.72
587.968	39.84
588.307	39.94
588.646	40.07
588.985	40.18
589.323	40.29
589.662	40.4
590.001	40.53
590.34	40.64
590.679	40.76
591.017	40.88
591.356	40.96
591.695	41.09
592.033	41.22
592.372	41.33
592.71	41.48
593.048	41.61
593.387	41.7
593.725	41.82
594.063	41.92
594.402	42.03
594.74	42.11
595.078	42.25
595.416	42.37
595.754	42.5
596.092	42.64
596.43	42.73
596.768	42.84
597.106	42.96
597.444	43.07
597.781	43.16
598.119	43.21
598.457	43.32
598.795	43.43
599.132	43.54
599.47	43.62
599.807	43.68
600.145	43.79
600.482	43.88
600.82	44
601.157	44.06
601.494	44.15
601.831	44.3
602.169	44.46
602.506	44.56
602.843	44.66
603.18	44.76
603.517	44.88
603.854	44.96
604.191	45.03
604.528	45.15
604.865	45.27
605.202	45.36
605.538	45.44
605.875	45.45
606.212	45.52
606.548	45.63
606.885	45.72
607.222	45.82
607.558	45.89
607.895	45.99
608.231	45.98
608.567	46.07
608.904	46.16
609.24	46.23
609.576	46.35
609.912	46.48
610.248	46.53
610.585	46.62
610.921	46.7
611.257	46.78
611.593	46.89
611.929	47.05
612.264	47.15
612.6	47.21
612.936	47.3
613.272	47.42
613.608	47.53
613.943	47.62
614.279	47.69
614.614	47.75
614.95	47.86
615.285	47.95
615.621	48.02
615.956	48.12
616.292	48.21
616.627	48.34
616.962	48.47
617.297	48.5
617.632	48.59
617.968	48.66
618.303	48.74
618.638	48.84
618.973	48.87
619.308	48.91
619.643	48.96
619.977	49.06
620.312	49.12
620.647	49.14
620.982	49.21
621.316	49.25
621.651	49.35
621.986	49.43
622.32	49.52
622.655	49.66
622.989	49.77
623.324	49.88
623.658	49.96
623.992	50.08
624.326	50.02
624.661	50.11
624.995	50.2
625.329	50.22
625.663	50.32
625.997	50.36
626.331	50.48
626.665	50.54
626.999	50.57
627.333	50.62
627.667	50.66
628.001	50.88
628.334	50.97
628.668	51.12
629.002	51.22
629.335	51.33
629.669	51.39
630.002	51.36
630.336	51.43
630.669	51.48
631.003	51.6
631.336	51.63
631.669	51.66
632.003	51.75
632.336	51.73
632.669	51.84
633.002	51.84
633.335	51.86
633.668	51.95
634.001	52.01
634.334	52.12
634.667	52.21
635	52.29
635.333	52.38
635.665	52.37
635.998	52.46
636.331	52.49
636.663	52.62
636.996	52.74
637.328	52.83
637.661	52.94
637.993	53
638.326	53.03
638.658	53.14
638.99	53.16
639.323	53.32
639.655	53.44
639.987	53.53
640.319	53.49
640.651	53.59
640.983	53.62
641.315	53.66
641.647	53.7
641.979	53.77
642.311	53.8
642.643	53.87
642.975	53.88
643.306	53.98
643.638	54.03
643.97	54.16
644.301	54.22
644.633	54.37
644.964	54.48
645.296	54.64
645.627	54.71
645.959	54.77
646.29	54.91
646.621	54.97
646.952	55.03
647.284	55.23
647.615	55.28
647.946	55.34
648.277	55.4
648.608	55.48
648.939	55.52
649.27	55.71
649.601	55.83
649.931	55.86
650.262	55.98
650.593	55.97
650.924	55.95
651.254	56.02
651.585	56.09
651.915	56.18
652.246	56.19
652.576	56.24
652.907	56.22
653.237	56.27
653.568	56.27
653.898	56.29
654.228	56.41
654.558	56.54
654.888	56.73
655.219	56.89
655.549	57.02
655.879	57.17
656.209	57.43
656.539	57.67
656.868	57.92
657.198	58.2
657.528	58.42
657.858	58.57
658.188	58.64
658.517	58.75
658.847	58.83
659.176	58.94
659.506	59.05
659.835	59.1
660.165	59.12
660.494	59.11
660.824	59.11
661.153	59.06
661.482	59.02
661.811	59
662.14	58.91
662.47	58.85
662.799	58.76
663.128	58.68
663.457	58.6
663.786	58.62
664.114	58.64
664.443	58.61
664.772	58.67
665.101	58.72
665.43	58.84
665.758	59.01
666.087	59.15
666.415	59.19
666.744	59.28
667.072	59.27
667.401	59.33
667.729	59.38
668.058	59.48
668.386	59.5
668.714	59.47
669.042	59.51
669.371	59.6
669.699	59.66
670.027	59.72
670.355	59.86
670.683	60.08
671.011	60.18
671.339	60.28
671.666	60.3
671.994	60.32
672.322	60.46
672.65	60.46
672.977	60.48
673.305	60.5
673.633	60.59
673.96	60.56
674.288	60.69
674.615	60.73
674.943	60.85
675.27	61.02
675.597	61.18
675.924	61.29
676.252	61.28
676.579	61.37
676.906	61.53
677.233	61.61
677.56	61.71
677.887	61.72
678.214	61.85
678.541	61.87
678.868	61.93
679.195	61.99
679.521	62.03
679.848	62.22
680.175	62.18
680.501	62.19
680.828	62.19
681.154	62.21
681.481	62.25
681.807	62.14
682.134	62.18
682.46	62.14
682.787	62.13
683.113	62.19
683.439	62.17
683.765	62.23
684.091	62.27
684.417	62.39
684.743	62.47
685.069	62.45
685.395	62.55
685.721	62.6
686.047	62.75
686.373	62.81
686.699	62.73
687.024	62.72
687.35	62.76
687.676	62.76
688.001	62.72
688.327	62.71
688.652	62.75
688.978	62.88
689.303	62.87
689.629	62.82
689.954	62.82
690.279	62.91
690.604	62.95
690.93	62.97
691.255	63.01
691.58	63.03
691.905	63.13
692.23	63.11
692.555	63.16
692.88	63.27
693.204	63.33
693.529	63.39
693.854	63.42
694.179	63.51
694.503	63.6
694.828	63.62
695.153	63.67
695.477	63.65
695.802	63.74
696.126	63.7
696.451	63.73
696.775	63.76
697.099	63.82
697.423	63.92
697.748	63.87
698.072	63.92
698.396	63.98
698.72	64
699.044	64.07
699.368	64.08
699.692	64.14
700.016	64.14
700.34	64.3
700.664	64.36
700.987	64.3
701.311	64.44
701.635	64.42
701.958	64.42
702.282	64.32
702.606	64.33
702.929	64.36
703.252	64.35
703.576	64.35
703.899	64.22
704.223	64.22
704.546	64.32
704.869	64.34
705.192	64.47
705.515	64.53
705.838	64.69
706.161	64.7
706.484	64.82
706.807	64.88
707.13	65.06
707.453	65.12
707.776	65.11
708.099	65.13
708.421	65.2
708.744	65.15
709.067	65.13
709.389	65.23
709.712	65.29
710.034	65.38
710.357	65.31
710.679	65.22
711.001	65.22
711.324	65.2
711.646	65.23
711.968	65.24
712.29	65.28
712.612	65.29
712.935	65.3
713.257	65.34
713.579	65.41
713.9	65.61
714.222	65.63
714.544	65.72
714.866	65.83
715.188	65.89
715.509	65.83
715.831	65.82
716.153	65.9
716.474	65.91
716.796	65.92
717.117	65.82
717.439	65.73
717.76	65.73
718.081	65.68
718.403	65.65
718.724	65.68
719.045	65.76
719.366	65.9
719.687	66.02
720.009	66.01
720.33	65.93
720.651	65.9
720.971	65.94
721.292	65.93
721.613	66.04
721.934	66.11
722.255	66.04
722.575	66.03
722.896	65.96
723.217	65.83
723.537	65.86
723.858	65.95
724.178	65.95
724.499	66.02
724.819	66.08
725.139	66.04
725.46	66.09
725.78	66.17
726.1	66.18
726.42	66.25
726.74	66.35
727.06	66.45
727.38	66.56
727.7	66.63
728.02	66.64
728.34	66.63
728.66	66.73
728.98	66.77
729.299	66.72
729.619	66.66
729.939	66.81
730.258	66.89
730.578	66.89
730.897	66.96
731.217	67.01
731.536	67.05
731.856	67.12
732.175	67.02
732.494	66.88
732.814	67
733.133	67.21
733.452	67.14
733.771	67.08
734.09	67.11
734.409	67.06
734.728	67.18
735.047	67.2
735.366	67.25
735.684	67.48
736.003	67.69
736.322	67.67
736.641	67.63
736.959	67.61
737.278	67.77
737.596	67.85
737.915	67.86
738.233	67.9
738.552	67.95
738.87	67.99
739.188	67.97
739.507	67.94
739.825	68.02
740.143	68
740.461	68.07
740.779	67.93
741.097	67.8
741.415	67.79
741.733	67.83
742.051	67.68
742.369	67.66
742.687	67.68
743.004	67.74
743.322	67.54
743.64	67.73
743.957	67.66
744.275	67.77
744.593	67.83
744.91	67.86
745.227	67.74
745.545	67.84
745.862	67.88
746.179	67.87
746.497	67.77
746.814	68.08
747.131	67.93
747.448	67.95
747.765	67.81
748.082	67.74
748.399	67.69
748.716	67.63
749.033	67.7
749.35	67.72
749.667	67.8
749.983	67.92
750.3	67.75
750.617	67.67
750.933	67.85
751.25	67.85
751.566	67.98
751.883	68.02
752.199	68.13
752.516	68.24
752.832	68.23
753.148	68.06
753.464	67.97
753.781	68.11
754.097	68.33
754.413	68.26
754.729	68.36
755.045	68.41
755.361	68.44
755.677	68.57
755.992	68.48
756.308	68.62
756.624	68.68
756.94	68.75
757.255	68.7
757.571	68.69
757.887	68.58
758.202	68.56
758.518	68.68
758.833	68.78
759.148	68.64
759.464	68.64
759.779	68.49
760.094	68.52
760.41	68.53
760.725	68.69
761.04	68.69
761.355	68.75
761.67	68.8
761.985	68.67
762.3	68.61
762.615	68.82
762.93	68.89
763.244	69.05
763.559	69.13
763.874	69.17
764.188	69.1
764.503	69.16
764.818	69.13
765.132	69.15
765.447	69.22
765.761	69.32
766.075	69.19
766.39	69.14
766.704	69.06
767.018	68.99
767.332	68.99
767.646	69.06
767.961	69.15
768.275	69.27
768.589	69.32
768.903	69.32
769.216	69.22
769.53	69.2
769.844	69.25
770.158	69.23
770.472	69.33
770.785	69.26
771.099	69.22
771.413	69.12
771.726	69.22
772.04	69.29
772.353	69.2
772.666	69.28
772.98	69.15
773.293	69.2
773.606	69.27
773.919	69.39
774.233	69.47
774.546	69.45
774.859	69.37
775.172	69.16
775.485	69
775.798	69.09
776.111	68.98
776.423	69.05
776.736	68.95
777.049	68.98
777.362	68.77
777.674	68.72
777.987	68.64
778.299	68.67
778.612	68.8
778.924	69
779.237	68.95
779.549	69.21
779.862	69.2
780.174	69.23
780.486	69.18
780.798	69.19
781.11	69.3
781.422	69.35
781.735	69.42
782.046	69.39
782.358	69.2
782.67	69.29
782.982	69.19
783.294	69.45
783.606	69.52
783.917	69.54
784.229	69.59
784.541	69.61
784.852	69.61
785.164	69.78
785.475	69.9
785.787	69.91
786.098	69.75
786.41	69.71
786.721	69.6
787.032	69.56
787.343	69.54
787.654	69.55
787.966	69.58
788.277	69.62
788.588	69.47
788.899	69.27
789.209	69.29
789.52	69.56
789.831	69.52
790.142	69.64
790.453	69.64
790.763	69.57
791.074	69.48
791.385	69.4
791.695	69.4
792.006	69.27
792.316	69.51
792.626	69.57
792.937	69.45
793.247	69.67
793.557	69.4
793.868	69.57
794.178	69.63
794.488	69.48
794.798	69.55
795.108	69.54
795.418	69.63
795.728	69.41
796.038	69.64
796.348	69.68
796.657	69.62
796.967	69.95
797.277	69.81
797.587	70.02
797.896	70.21
798.206	69.97
798.515	70.04
798.825	70.19
799.134	70.21
799.444	69.92
799.753	70.19
800.062	70.51
800.371	70.49
800.681	70.64
800.99	70.59
801.299	70.86
801.608	70.82
801.917	70.68
802.226	70.65
802.535	70.8
802.844	70.97
803.152	70.78
803.461	70.53
803.77	70.19
804.078	70.01
804.387	69.86
804.696	69.85
805.004	70.06
805.313	70.22
805.621	70.11
805.93	69.95
806.238	69.78
806.546	69.74
806.854	69.47
807.163	69.54
807.471	69.69
807.779	69.68
808.087	69.55
808.395	69.64
808.703	69.88
809.011	69.81
809.319	70.03
809.626	70.16
809.934	69.95
810.242	70.03
810.55	70.06
810.857	70.17
811.165	70.3
811.472	70.34
811.78	70.38
812.087	70.16
812.395	70.17
812.702	70.29
813.009	70.12
813.317	70.22
813.624	70.32
813.931	70.16
814.238	69.91
814.545	69.66
814.852	69.65
815.159	69.7
815.466	69.75
815.773	69.88
816.08	69.59
816.387	69.72
816.693	69.73
817	69.8
817.307	70.24
817.613	70.6
817.92	70.78
818.226	70.5
818.533	70.46
818.839	70.5
819.146	70.37
819.452	70.47
819.758	70.67
820.064	70.89
820.371	70.84
820.677	70.45
820.983	70.31
821.289	70.44
821.595	70.53
821.901	70.59
822.207	70.75
822.512	70.59
822.818	70.79
823.124	70.89
823.43	70.86
823.735	70.93
824.041	71.11
824.347	70.91
824.652	70.66
824.957	70.68
825.263	70.45
825.568	69.96
825.874	70.22
826.179	69.67
826.484	69.36
826.789	69.27
827.094	69.11
827.399	69.27
827.705	69.57
828.01	69.19
828.314	69.61
828.619	69.56
828.924	69.71
829.229	69.5
829.534	70.2
829.838	70.43
830.143	70.54
830.448	70.86
830.752	70.56
831.057	70.19
831.361	70.8
831.666	70.72
831.97	70.75
832.274	71.08
832.579	71.54
832.883	71.21
833.187	70.82
833.491	70.43
833.795	70.4
834.099	70.81
834.403	70.61
834.707	70.37
835.011	70.25
835.315	70.82
835.619	70.84
835.923	70.68
836.226	71.25
836.53	71.54
836.834	72.14
837.137	71.51
837.441	71.46
837.744	71.7
838.048	72.16
838.351	71.81
838.654	71.85
838.958	71.45
839.261	71.13
839.564	71.04
839.867	71.06
840.17	70.84
840.473	71.27
840.776	70.91
841.079	70.78
841.382	70.28
841.685	70.15
841.988	69.92
842.291	69.86
842.593	70.13
842.896	69.58
843.199	69.56
843.501	69.06
843.804	69.26
844.106	69.43
844.409	69.54
844.711	69.79
845.013	70.01
845.316	69.93
845.618	69.82
845.92	69.38
846.222	69.96
846.524	69.98
846.826	70.57
847.128	70.39
847.43	70.19
847.732	70.34
848.034	69.67
848.336	69.32
848.638	69.05
848.939	69.41
849.241	69.25
849.543	68.66
849.844	68.3
850.146	68.59
850.447	68.69
850.749	68.61
851.05	69.06
851.351	69.42
851.653	69.58
851.954	69.19
852.255	69.74
852.556	70.47
852.857	70.42
853.158	70.22
853.459	69.74
853.76	70.1
854.061	69.75
854.362	69.02
854.663	69.27
854.964	69.32
855.264	70.14
855.565	69.83
855.866	69.72
856.166	69.7
856.467	70.31
856.767	70.47
857.068	70.67
857.368	70.65
857.668	70.66
857.969	70.92
858.269	71.57
858.569	71.17
858.869	70.94
859.169	71.37
859.469	70.97
859.769	70.83
860.069	70.38
860.369	69.81
860.669	70.47
860.969	70.38
861.269	69.78
861.568	69.42
861.868	69.43
862.168	69.06
862.467	68.73
862.767	69.5
863.066	69.44
863.366	69.05
863.665	68.87
863.964	68.61
864.264	68.46
864.563	68.52
864.862	68.15
865.161	68.25
865.46	69.23
865.759	68.98
866.058	67.91
866.357	67.52
866.656	68.76
866.955	69.48
867.254	69.45
867.552	69.62
867.851	69.97
868.15	69.9
868.448	70.66
868.747	69.41
869.045	68.79
869.344	69.34
869.642	69.31
869.941	69.35
870.239	67.63
870.537	68.25
870.836	69.01
871.134	68.44
871.432	68.2
871.73	66.66
872.028	67.07
872.326	68.24
872.624	69.26
872.922	69.92
873.22	69.49
873.517	70.55
873.815	70.33
874.113	69.69
874.411	70
874.708	70.4
875.006	70.55
875.303	70.2
875.601	70.43
875.898	69.58
876.195	68.73
876.493	68.19
876.79	68.15
877.087	67.81
877.384	67.54
877.682	67.93
877.979	68.54
878.276	68.87
878.573	69.5
878.87	68.56
879.166	68.32
879.463	69.41
