Data from polyxenes_ven_HW_orange_left_4_Reflection__0__31.txt Node

Date: Sun Dec 11 11:48:34 EST 2022
User: abbyrobinson
Spectrometer: USB2G8287
Scans to average: 10
Trigger mode: 4
Integration Time (sec): 1.000000E-1
Electric dark correction enabled: true
Boxcar width: 5
XAxis mode: Wavelengths
Number of Pixels in Spectrum: 2048
>>>>>Begin Spectral Data<<<<<
177.272	64
177.658	280.24
178.044	604.55
178.43	-1075
178.816	-268.57
179.203	238.59
179.589	75.93
179.975	149.6
180.361	230.33
180.747	-1017.5
181.133	-94.02
181.519	19.55
181.904	280.24
182.29	260.96
182.676	289.08
183.062	106.37
183.447	114.01
183.833	169.02
184.219	141.14
184.604	145.99
184.99	4707.14
185.375	-105.94
185.761	-69.66
186.146	-37.52
186.531	-6.48
186.917	-1.57
187.302	-5.57
187.687	7.06
188.073	17.66
188.458	18.73
188.843	23.12
189.228	20.32
189.613	18.99
189.998	17.63
190.383	17.35
190.768	14.36
191.153	14.9
191.538	13.68
191.923	8.38
192.307	3.04
192.692	2.75
193.077	-5.17
193.461	-6.4
193.846	-7.71
194.231	-6.62
194.615	-7.42
195	-3.59
195.384	-0.75
195.769	3.59
196.153	6.1
196.537	9.14
196.922	8.46
197.306	12.71
197.69	15.19
198.074	17.34
198.458	19.89
198.843	21.78
199.227	23.31
199.611	22.91
199.995	21.86
200.379	17.86
200.763	17.99
201.146	19.83
201.53	21.15
201.914	16.29
202.298	13.1
202.681	12.85
203.065	15.63
203.449	11.91
203.832	10.46
204.216	14.3
204.599	21.99
204.983	23.71
205.366	20.4
205.75	19.29
206.133	23.23
206.516	26.52
206.9	26.61
207.283	27.17
207.666	27.24
208.049	27.22
208.432	27.63
208.815	23.75
209.198	18.41
209.581	19.14
209.964	22.55
210.347	24.1
210.73	24.1
211.113	25.25
211.496	23.56
211.879	24.62
212.261	24.97
212.644	23.59
213.027	22.35
213.409	21.13
213.792	22.24
214.174	20.63
214.557	20.93
214.939	20.6
215.322	15.89
215.704	15.32
216.086	14.7
216.469	11.56
216.851	12.3
217.233	14.5
217.615	17.86
217.997	16.45
218.379	14.77
218.761	9.77
219.143	12.24
219.525	16.35
219.907	13.74
220.289	11.96
220.671	12.75
221.053	8.57
221.435	7.02
221.816	6.19
222.198	7.65
222.58	8.42
222.961	10.05
223.343	4.51
223.724	2.72
224.106	3.15
224.487	7.35
224.869	11.18
225.25	12.9
225.631	12.81
226.013	12.87
226.394	11.54
226.775	10.09
227.156	10.29
227.537	12.39
227.919	13.28
228.3	14.97
228.681	11.87
229.062	11.25
229.442	11.69
229.823	11.53
230.204	11.82
230.585	11.45
230.966	11.25
231.347	10.58
231.727	10.38
232.108	9.43
232.488	8.1
232.869	9.2
233.25	9.48
233.63	9.22
234.01	9.74
234.391	9.59
234.771	10.14
235.152	10.16
235.532	10.56
235.912	10.12
236.292	10.24
236.672	10.29
237.053	10.33
237.433	9.77
237.813	9.39
238.193	9.12
238.573	8.74
238.953	8.51
239.333	8.51
239.712	8.36
240.092	8.48
240.472	8.38
240.852	8.48
241.231	8.26
241.611	8.06
241.991	8.21
242.37	8.22
242.75	8.35
243.129	8.33
243.509	8.19
243.888	8.17
244.267	8.13
244.647	8.17
245.026	8.07
245.405	8.22
245.784	8.32
246.164	8.32
246.543	8.14
246.922	8.05
247.301	8.04
247.68	8
248.059	7.97
248.438	8.04
248.817	8.04
249.195	8.03
249.574	7.96
249.953	7.98
250.332	7.91
250.71	7.96
251.089	7.93
251.468	7.9
251.846	7.96
252.225	7.94
252.603	7.84
252.982	7.92
253.36	7.94
253.738	7.87
254.117	7.88
254.495	7.84
254.873	7.88
255.251	7.88
255.63	7.87
256.008	7.83
256.386	7.8
256.764	7.79
257.142	7.65
257.52	7.65
257.898	7.69
258.276	7.64
258.653	7.66
259.031	7.63
259.409	7.63
259.787	7.66
260.164	7.7
260.542	7.73
260.92	7.75
261.297	7.79
261.675	7.82
262.052	7.81
262.43	7.8
262.807	7.78
263.184	7.8
263.562	7.78
263.939	7.72
264.316	7.74
264.693	7.73
265.07	7.75
265.448	7.75
265.825	7.7
266.202	7.66
266.579	7.66
266.956	7.66
267.333	7.59
267.709	7.66
268.086	7.63
268.463	7.63
268.84	7.62
269.216	7.58
269.593	7.51
269.97	7.52
270.346	7.54
270.723	7.53
271.099	7.54
271.476	7.56
271.852	7.48
272.229	7.54
272.605	7.52
272.981	7.5
273.358	7.57
273.734	7.67
274.11	7.64
274.486	7.69
274.862	7.68
275.238	7.64
275.614	7.65
275.99	7.65
276.366	7.62
276.742	7.55
277.118	7.56
277.494	7.5
277.87	7.45
278.245	7.46
278.621	7.33
278.997	7.25
279.372	7.27
279.748	7.23
280.123	7.26
280.499	7.2
280.874	7.17
281.25	7.13
281.625	7.07
282	6.99
282.376	6.95
282.751	7.02
283.126	7.02
283.501	6.95
283.876	6.94
284.252	6.86
284.627	6.9
285.002	6.98
285.377	6.94
285.751	6.91
286.126	6.88
286.501	6.89
286.876	6.86
287.251	6.85
287.625	6.83
288	6.8
288.375	6.82
288.749	6.72
289.124	6.62
289.498	6.58
289.873	6.6
290.247	6.61
290.622	6.57
290.996	6.49
291.37	6.47
291.745	6.52
292.119	6.5
292.493	6.48
292.867	6.49
293.241	6.45
293.616	6.43
293.99	6.39
294.364	6.37
294.737	6.43
295.111	6.48
295.485	6.49
295.859	6.43
296.233	6.42
296.607	6.44
296.98	6.45
297.354	6.5
297.728	6.54
298.101	6.57
298.475	6.56
298.848	6.46
299.222	6.4
299.595	6.39
299.968	6.37
300.342	6.37
300.715	6.31
301.088	6.27
301.462	6.27
301.835	6.2
302.208	6.17
302.581	6.18
302.954	6.16
303.327	6.1
303.7	6.04
304.073	6.02
304.446	6.04
304.819	6.01
305.192	6.04
305.564	5.99
305.937	6.01
306.31	5.95
306.682	5.89
307.055	5.91
307.428	5.91
307.8	5.9
308.173	5.9
308.545	5.85
308.917	5.82
309.29	5.76
309.662	5.72
310.034	5.69
310.407	5.73
310.779	5.76
311.151	5.74
311.523	5.76
311.895	5.71
312.267	5.69
312.639	5.68
313.011	5.7
313.383	5.74
313.755	5.77
314.127	5.74
314.498	5.72
314.87	5.63
315.242	5.6
315.614	5.54
315.985	5.59
316.357	5.59
316.728	5.56
317.1	5.54
317.471	5.46
317.843	5.42
318.214	5.49
318.585	5.51
318.957	5.5
319.328	5.44
319.699	5.44
320.07	5.39
320.441	5.4
320.813	5.44
321.184	5.46
321.555	5.45
321.926	5.48
322.297	5.43
322.667	5.42
323.038	5.5
323.409	5.58
323.78	5.62
324.151	5.63
324.521	5.63
324.892	5.54
325.262	5.52
325.633	5.52
326.004	5.5
326.374	5.5
326.744	5.44
327.115	5.41
327.485	5.32
327.855	5.27
328.226	5.25
328.596	5.18
328.966	5.17
329.336	5.16
329.706	5.14
330.076	5.08
330.447	5.06
330.816	5.09
331.186	5.03
331.556	5.07
331.926	5.17
332.296	5.19
332.666	5.19
333.036	5.16
333.405	5.06
333.775	5.08
334.144	5.1
334.514	5.04
334.884	4.98
335.253	4.97
335.623	4.98
335.992	4.9
336.361	4.87
336.731	4.88
337.1	4.86
337.469	4.95
337.838	4.94
338.208	4.95
338.577	5.03
338.946	5.04
339.315	5
339.684	4.98
340.053	4.99
340.422	4.91
340.79	4.94
341.159	5
341.528	4.99
341.897	4.96
342.266	4.98
342.634	4.92
343.003	4.96
343.371	5
343.74	4.99
344.108	4.98
344.477	5.12
344.845	5.05
345.214	4.98
345.582	5
345.95	5
346.319	4.94
346.687	4.97
347.055	4.9
347.423	4.86
347.791	4.85
348.159	4.81
348.527	4.69
348.895	4.72
349.263	4.79
349.631	4.76
349.999	4.75
350.367	4.71
350.734	4.67
351.102	4.7
351.47	4.7
351.837	4.67
352.205	4.66
352.573	4.72
352.94	4.69
353.308	4.67
353.675	4.65
354.042	4.6
354.41	4.58
354.777	4.58
355.144	4.54
355.511	4.6
355.879	4.69
356.246	4.7
356.613	4.69
356.98	4.68
357.347	4.65
357.714	4.65
358.081	4.68
358.448	4.66
358.815	4.64
359.181	4.6
359.548	4.56
359.915	4.48
360.282	4.45
360.648	4.43
361.015	4.42
361.381	4.39
361.748	4.37
362.114	4.36
362.481	4.44
362.847	4.48
363.214	4.46
363.58	4.44
363.946	4.44
364.312	4.47
364.678	4.38
365.045	4.37
365.411	4.34
365.777	4.29
366.143	4.27
366.509	4.22
366.875	4.18
367.241	4.2
367.606	4.15
367.972	4.16
368.338	4.13
368.704	4.19
369.069	4.18
369.435	4.18
369.801	4.2
370.166	4.24
370.532	4.24
370.897	4.24
371.263	4.21
371.628	4.24
371.993	4.19
372.359	4.22
372.724	4.2
373.089	4.24
373.454	4.27
373.82	4.32
374.185	4.28
374.55	4.21
374.915	4.19
375.28	4.22
375.645	4.17
376.01	4.14
376.374	4.06
376.739	4.05
377.104	4.04
377.469	4.03
377.833	4
378.198	4.03
378.563	4.06
378.927	4.07
379.292	4.09
379.656	4.11
380.021	4.17
380.385	4.22
380.749	4.23
381.114	4.19
381.478	4.21
381.842	4.25
382.206	4.22
382.571	4.2
382.935	4.22
383.299	4.15
383.663	4.17
384.027	4.12
384.391	4.07
384.755	4.09
385.118	4.04
385.482	4.01
385.846	3.96
386.21	3.91
386.573	3.94
386.937	3.95
387.301	3.97
387.664	3.96
388.028	3.96
388.391	4
388.755	3.99
389.118	4.06
389.481	4
389.845	3.97
390.208	3.94
390.571	3.86
390.934	3.81
391.298	3.81
391.661	3.8
392.024	3.8
392.387	3.77
392.75	3.71
393.113	3.67
393.476	3.74
393.838	3.75
394.201	3.8
394.564	3.83
394.927	3.88
395.289	3.89
395.652	3.87
396.015	3.88
396.377	3.87
396.74	3.9
397.102	3.88
397.465	3.84
397.827	3.8
398.189	3.77
398.552	3.76
398.914	3.71
399.276	3.68
399.638	3.66
400	3.63
400.363	3.6
400.725	3.6
401.087	3.62
401.449	3.6
401.81	3.66
402.172	3.68
402.534	3.68
402.896	3.67
403.258	3.65
403.619	3.62
403.981	3.63
404.343	3.66
404.704	3.66
405.066	3.65
405.427	3.69
405.789	3.61
406.15	3.58
406.512	3.56
406.873	3.58
407.234	3.6
407.596	3.62
407.957	3.63
408.318	3.65
408.679	3.64
409.04	3.62
409.401	3.58
409.762	3.59
410.123	3.59
410.484	3.62
410.845	3.62
411.206	3.59
411.567	3.63
411.927	3.59
412.288	3.53
412.649	3.6
413.009	3.58
413.37	3.61
413.731	3.63
414.091	3.64
414.452	3.6
414.812	3.62
415.172	3.64
415.533	3.6
415.893	3.66
416.253	3.68
416.613	3.63
416.974	3.69
417.334	3.7
417.694	3.68
418.054	3.64
418.414	3.62
418.774	3.6
419.134	3.62
419.494	3.65
419.853	3.64
420.213	3.7
420.573	3.66
420.933	3.6
421.292	3.6
421.652	3.65
422.011	3.71
422.371	3.76
422.73	3.77
423.09	3.78
423.449	3.81
423.809	3.79
424.168	3.75
424.527	3.73
424.887	3.78
425.246	3.77
425.605	3.73
425.964	3.71
426.323	3.68
426.682	3.64
427.041	3.58
427.4	3.5
427.759	3.49
428.118	3.46
428.477	3.45
428.835	3.46
429.194	3.5
429.553	3.55
429.911	3.55
430.27	3.55
430.629	3.57
430.987	3.6
431.346	3.67
431.704	3.72
432.062	3.75
432.421	3.74
432.779	3.71
433.137	3.68
433.496	3.65
433.854	3.66
434.212	3.69
434.57	3.76
434.928	3.76
435.286	3.76
435.644	3.68
436.002	3.68
436.36	3.74
436.718	3.74
437.075	3.77
437.433	3.78
437.791	3.76
438.149	3.76
438.506	3.72
438.864	3.71
439.221	3.72
439.579	3.73
439.936	3.72
440.294	3.73
440.651	3.74
441.009	3.77
441.366	3.75
441.723	3.75
442.08	3.72
442.437	3.71
442.795	3.71
443.152	3.72
443.509	3.7
443.866	3.74
444.223	3.74
444.58	3.75
444.936	3.73
445.293	3.76
445.65	3.8
446.007	3.81
446.363	3.8
446.72	3.8
447.077	3.76
447.433	3.79
447.79	3.78
448.146	3.77
448.503	3.78
448.859	3.77
449.215	3.77
449.572	3.76
449.928	3.78
450.284	3.8
450.641	3.84
450.997	3.9
451.353	3.98
451.709	3.98
452.065	4.02
452.421	3.99
452.777	4
453.133	4.01
453.488	4.01
453.844	4.05
454.2	4.06
454.556	4.11
454.911	4.15
455.267	4.09
455.623	4.08
455.978	4.07
456.334	4.11
456.689	4.15
457.045	4.18
457.4	4.25
457.755	4.24
458.111	4.29
458.466	4.28
458.821	4.29
459.176	4.33
459.531	4.37
459.886	4.39
460.242	4.4
460.597	4.38
460.951	4.33
461.306	4.31
461.661	4.31
462.016	4.32
462.371	4.33
462.726	4.34
463.08	4.36
463.435	4.35
463.79	4.39
464.144	4.42
464.499	4.45
464.853	4.54
465.208	4.59
465.562	4.65
465.916	4.61
466.271	4.58
466.625	4.57
466.979	4.6
467.333	4.63
467.688	4.67
468.042	4.64
468.396	4.68
468.75	4.65
469.104	4.62
469.458	4.64
469.811	4.7
470.165	4.76
470.519	4.77
470.873	4.77
471.227	4.77
471.58	4.74
471.934	4.8
472.287	4.81
472.641	4.88
472.995	4.92
473.348	4.92
473.701	4.96
474.055	4.96
474.408	5
474.761	5.04
475.115	5.07
475.468	5.1
475.821	5.08
476.174	5.11
476.527	5.1
476.88	5.09
477.233	5.15
477.586	5.14
477.939	5.12
478.292	5.08
478.645	5.05
478.998	5.07
479.35	5.09
479.703	5.1
480.056	5.12
480.408	5.14
480.761	5.2
481.113	5.21
481.466	5.22
481.818	5.26
482.171	5.3
482.523	5.35
482.875	5.35
483.228	5.39
483.58	5.43
483.932	5.44
484.284	5.48
484.636	5.47
484.988	5.53
485.34	5.58
485.692	5.64
486.044	5.67
486.396	5.68
486.748	5.74
487.1	5.77
487.451	5.77
487.803	5.81
488.155	5.81
488.506	5.84
488.858	5.85
489.209	5.85
489.561	5.86
489.912	5.89
490.264	5.93
490.615	5.94
490.966	5.95
491.318	5.99
491.669	6.02
492.02	6.08
492.371	6.12
492.722	6.17
493.073	6.23
493.424	6.28
493.775	6.32
494.126	6.37
494.477	6.4
494.828	6.43
495.179	6.5
495.53	6.55
495.88	6.57
496.231	6.6
496.582	6.58
496.932	6.6
497.283	6.61
497.633	6.68
497.984	6.74
498.334	6.77
498.684	6.84
499.035	6.92
499.385	6.95
499.735	7
500.086	7.03
500.436	7.1
500.786	7.16
501.136	7.25
501.486	7.25
501.836	7.29
502.186	7.39
502.536	7.47
502.886	7.51
503.235	7.59
503.585	7.66
503.935	7.75
504.285	7.83
504.634	7.93
504.984	7.99
505.333	8.07
505.683	8.14
506.032	8.16
506.382	8.17
506.731	8.22
507.08	8.25
507.43	8.27
507.779	8.31
508.128	8.38
508.477	8.42
508.826	8.48
509.176	8.57
509.525	8.63
509.874	8.67
510.222	8.71
510.571	8.78
510.92	8.87
511.269	8.94
511.618	9.02
511.967	9.07
512.315	9.13
512.664	9.19
513.012	9.24
513.361	9.31
513.71	9.44
514.058	9.56
514.406	9.63
514.755	9.67
515.103	9.75
515.451	9.85
515.8	9.97
516.148	10.08
516.496	10.18
516.844	10.27
517.192	10.38
517.54	10.43
517.888	10.49
518.236	10.57
518.584	10.64
518.932	10.76
519.28	10.86
519.628	10.93
519.975	10.97
520.323	11.1
520.671	11.18
521.018	11.27
521.366	11.38
521.713	11.46
522.061	11.57
522.408	11.72
522.756	11.79
523.103	11.89
523.45	11.97
523.798	12.1
524.145	12.21
524.492	12.33
524.839	12.44
525.186	12.56
525.533	12.67
525.88	12.8
526.227	12.94
526.574	13.07
526.921	13.14
527.268	13.25
527.615	13.37
527.961	13.43
528.308	13.54
528.655	13.65
529.001	13.73
529.348	13.88
529.694	13.99
530.041	14.03
530.387	14.12
530.734	14.23
531.08	14.39
531.426	14.42
531.773	14.54
532.119	14.65
532.465	14.79
532.811	14.94
533.157	15.06
533.503	15.17
533.849	15.33
534.195	15.49
534.541	15.64
534.887	15.72
535.233	15.91
535.579	16.05
535.924	16.19
536.27	16.27
536.616	16.41
536.961	16.47
537.307	16.57
537.652	16.69
537.998	16.81
538.343	16.93
538.689	17.07
539.034	17.18
539.379	17.25
539.725	17.36
540.07	17.5
540.415	17.61
540.76	17.82
541.105	17.97
541.45	18.1
541.795	18.22
542.14	18.36
542.485	18.51
542.83	18.62
543.175	18.81
543.519	18.93
543.864	19.11
544.209	19.25
544.554	19.41
544.898	19.55
545.243	19.63
545.587	19.73
545.932	19.86
546.276	19.95
546.621	20.11
546.965	20.22
547.309	20.36
547.653	20.41
547.998	20.48
548.342	20.56
548.686	20.67
549.03	20.83
549.374	20.99
549.718	21.12
550.062	21.26
550.406	21.42
550.75	21.51
551.094	21.62
551.437	21.73
551.781	21.92
552.125	22.04
552.468	22.14
552.812	22.24
553.156	22.37
553.499	22.48
553.843	22.59
554.186	22.67
554.529	22.81
554.873	22.96
555.216	23.12
555.559	23.25
555.902	23.32
556.246	23.48
556.589	23.68
556.932	23.78
557.275	23.89
557.618	24.01
557.961	24.17
558.304	24.3
558.646	24.43
558.989	24.53
559.332	24.61
559.675	24.78
560.017	24.83
560.36	24.89
560.703	25
561.045	25.1
561.388	25.25
561.73	25.33
562.073	25.43
562.415	25.55
562.757	25.71
563.1	25.84
563.442	25.95
563.784	26.08
564.126	26.2
564.468	26.34
564.81	26.43
565.152	26.52
565.494	26.62
565.836	26.73
566.178	26.8
566.52	26.85
566.862	26.93
567.204	27.05
567.545	27.15
567.887	27.28
568.229	27.33
568.57	27.46
568.912	27.56
569.253	27.66
569.595	27.76
569.936	27.88
570.277	27.98
570.619	28.14
570.96	28.17
571.301	28.29
571.642	28.37
571.984	28.46
572.325	28.57
572.666	28.66
573.007	28.76
573.348	28.8
573.689	28.85
574.03	28.95
574.37	29.02
574.711	29.15
575.052	29.23
575.393	29.33
575.733	29.43
576.074	29.5
576.414	29.56
576.755	29.65
577.095	29.74
577.436	29.86
577.776	29.97
578.117	30.05
578.457	30.12
578.797	30.2
579.137	30.27
579.478	30.34
579.818	30.43
580.158	30.53
580.498	30.63
580.838	30.76
581.178	30.84
581.518	30.93
581.858	31.04
582.197	31.14
582.537	31.23
582.877	31.33
583.217	31.44
583.556	31.55
583.896	31.64
584.235	31.72
584.575	31.81
584.914	31.9
585.254	31.98
585.593	32.07
585.933	32.16
586.272	32.27
586.611	32.37
586.95	32.46
587.289	32.55
587.629	32.64
587.968	32.75
588.307	32.83
588.646	32.94
588.985	33.04
589.323	33.12
589.662	33.21
590.001	33.3
590.34	33.38
590.679	33.5
591.017	33.57
591.356	33.68
591.695	33.77
592.033	33.88
592.372	33.94
592.71	34.04
593.048	34.14
593.387	34.23
593.725	34.34
594.063	34.47
594.402	34.52
594.74	34.62
595.078	34.74
595.416	34.82
595.754	34.84
596.092	34.94
596.43	35.04
596.768	35.12
597.106	35.23
597.444	35.33
597.781	35.41
598.119	35.5
598.457	35.58
598.795	35.66
599.132	35.72
599.47	35.88
599.807	35.98
600.145	36.06
600.482	36.19
600.82	36.27
601.157	36.31
601.494	36.38
601.831	36.44
602.169	36.55
602.506	36.59
602.843	36.69
603.18	36.75
603.517	36.83
603.854	36.91
604.191	36.94
604.528	37.01
604.865	37.11
605.202	37.18
605.538	37.25
605.875	37.29
606.212	37.37
606.548	37.44
606.885	37.55
607.222	37.7
607.558	37.78
607.895	37.88
608.231	37.96
608.567	38.04
608.904	38.17
609.24	38.28
609.576	38.41
609.912	38.5
610.248	38.59
610.585	38.63
610.921	38.63
611.257	38.72
611.593	38.77
611.929	38.84
612.264	38.91
612.6	38.93
612.936	39
613.272	39.06
613.608	39.17
613.943	39.27
614.279	39.36
614.614	39.45
614.95	39.51
615.285	39.62
615.621	39.7
615.956	39.78
616.292	39.83
616.627	39.91
616.962	40.02
617.297	40.07
617.632	40.15
617.968	40.26
618.303	40.31
618.638	40.37
618.973	40.41
619.308	40.5
619.643	40.56
619.977	40.65
620.312	40.71
620.647	40.76
620.982	40.84
621.316	40.88
621.651	40.92
621.986	41.03
622.32	41.1
622.655	41.21
622.989	41.29
623.324	41.38
623.658	41.49
623.992	41.58
624.326	41.66
624.661	41.72
624.995	41.82
625.329	41.89
625.663	41.97
625.997	42.07
626.331	42.13
626.665	42.19
626.999	42.28
627.333	42.36
627.667	42.44
628.001	42.53
628.334	42.68
628.668	42.74
629.002	42.81
629.335	42.85
629.669	42.92
630.002	43
630.336	43.08
630.669	43.14
631.003	43.21
631.336	43.27
631.669	43.31
632.003	43.34
632.336	43.4
632.669	43.51
633.002	43.6
633.335	43.69
633.668	43.73
634.001	43.81
634.334	43.91
634.667	43.96
635	44
635.333	44.06
635.665	44.14
635.998	44.19
636.331	44.27
636.663	44.33
636.996	44.34
637.328	44.43
637.661	44.41
637.993	44.41
638.326	44.46
638.658	44.61
638.99	44.63
639.323	44.72
639.655	44.79
639.987	44.89
640.319	44.88
640.651	44.94
640.983	45.05
641.315	45.22
641.647	45.37
641.979	45.42
642.311	45.44
642.643	45.57
642.975	45.61
643.306	45.71
643.638	45.68
643.97	45.81
644.301	45.9
644.633	45.95
644.964	45.92
645.296	45.98
645.627	46.12
645.959	46.16
646.29	46.26
646.621	46.29
646.952	46.26
647.284	46.34
647.615	46.45
647.946	46.52
648.277	46.61
648.608	46.74
648.939	46.8
649.27	46.84
649.601	46.92
649.931	46.95
650.262	47.01
650.593	47.14
650.924	47.25
651.254	47.3
651.585	47.39
651.915	47.45
652.246	47.52
652.576	47.52
652.907	47.65
653.237	47.7
653.568	47.75
653.898	47.85
654.228	47.89
654.558	47.97
654.888	48.01
655.219	48.02
655.549	47.89
655.879	47.66
656.209	47.54
656.539	47.44
656.868	47.47
657.198	47.5
657.528	47.52
657.858	47.52
658.188	47.58
658.517	47.66
658.847	47.75
659.176	47.87
659.506	48
659.835	48.15
660.165	48.28
660.494	48.39
660.824	48.51
661.153	48.62
661.482	48.75
661.811	48.86
662.14	48.92
662.47	48.97
662.799	49.07
663.128	49.17
663.457	49.22
663.786	49.25
664.114	49.27
664.443	49.27
664.772	49.31
665.101	49.36
665.43	49.36
665.758	49.5
666.087	49.56
666.415	49.64
666.744	49.77
667.072	49.88
667.401	50.06
667.729	50.16
668.058	50.28
668.386	50.35
668.714	50.43
669.042	50.52
669.371	50.57
669.699	50.63
670.027	50.66
670.355	50.64
670.683	50.53
671.011	50.45
671.339	50.5
671.666	50.59
671.994	50.63
672.322	50.78
672.65	50.9
672.977	50.94
673.305	51.03
673.633	51.04
673.96	51.27
674.288	51.45
674.615	51.64
674.943	51.75
675.27	51.82
675.597	51.86
675.924	51.85
676.252	51.95
676.579	52.01
676.906	52.11
677.233	52.14
677.56	52.03
677.887	52.05
678.214	52.04
678.541	52.06
678.868	52.04
679.195	52.13
679.521	52.22
679.848	52.16
680.175	52.22
680.501	52.27
680.828	52.42
681.154	52.46
681.481	52.52
681.807	52.53
682.134	52.46
682.46	52.58
682.787	52.58
683.113	52.65
683.439	52.74
683.765	52.72
684.091	52.73
684.417	52.68
684.743	52.75
685.069	52.78
685.395	52.9
685.721	53.01
686.047	52.94
686.373	52.94
686.699	52.96
687.024	52.96
687.35	52.97
687.676	53.02
688.001	53.03
688.327	53.09
688.652	53.1
688.978	53.04
689.303	53.19
689.629	53.18
689.954	53.3
690.279	53.25
690.604	53.33
690.93	53.45
691.255	53.44
691.58	53.47
691.905	53.52
692.23	53.62
692.555	53.71
692.88	53.61
693.204	53.63
693.529	53.66
693.854	53.64
694.179	53.75
694.503	53.77
694.828	53.81
695.153	53.92
695.477	53.88
695.802	53.85
696.126	53.92
696.451	54.07
696.775	54.21
697.099	54.15
697.423	54.16
697.748	54.06
698.072	54.1
698.396	54.12
698.72	54.2
699.044	54.18
699.368	54.3
699.692	54.26
700.016	54.32
700.34	54.37
700.664	54.45
700.987	54.63
701.311	54.73
701.635	54.67
701.958	54.68
702.282	54.66
702.606	54.8
702.929	54.8
703.252	54.86
703.576	54.78
703.899	54.84
704.223	54.79
704.546	54.78
704.869	54.74
705.192	54.82
705.515	54.83
705.838	54.77
706.161	54.85
706.484	54.78
706.807	54.69
707.13	54.76
707.453	54.72
707.776	54.74
708.099	54.72
708.421	54.74
708.744	54.88
709.067	55.1
709.389	55.12
709.712	55.04
710.034	55.1
710.357	55.24
710.679	55.25
711.001	55.35
711.324	55.37
711.646	55.42
711.968	55.36
712.29	55.35
712.612	55.21
712.935	55.28
713.257	55.36
713.579	55.45
713.9	55.36
714.222	55.36
714.544	55.27
714.866	55.42
715.188	55.38
715.509	55.57
715.831	55.55
716.153	55.6
716.474	55.55
716.796	55.5
717.117	55.59
717.439	55.66
717.76	55.66
718.081	55.73
718.403	55.71
718.724	55.72
719.045	55.68
719.366	55.82
719.687	55.85
720.009	56.01
720.33	56.03
720.651	55.78
720.971	55.86
721.292	55.73
721.613	55.69
721.934	55.71
722.255	55.8
722.575	55.87
722.896	55.82
723.217	55.71
723.537	55.6
723.858	55.74
724.178	55.9
724.499	55.99
724.819	56.19
725.139	56.2
725.46	56.3
725.78	56.43
726.1	56.48
726.42	56.48
726.74	56.6
727.06	56.68
727.38	56.63
727.7	56.68
728.02	56.56
728.34	56.53
728.66	56.73
728.98	56.71
729.299	56.59
729.619	56.38
729.939	56.31
730.258	56.36
730.578	56.48
730.897	56.48
731.217	56.49
731.536	56.58
731.856	56.77
732.175	56.8
732.494	56.74
732.814	56.77
733.133	56.86
733.452	56.99
733.771	57.04
734.09	56.9
734.409	56.88
734.728	56.92
735.047	56.84
735.366	56.73
735.684	56.65
736.003	56.72
736.322	56.71
736.641	56.79
736.959	56.85
737.278	56.84
737.596	56.95
737.915	57.08
738.233	57.15
738.552	57.25
738.87	57.43
739.188	57.48
739.507	57.61
739.825	57.74
740.143	57.61
740.461	57.54
740.779	57.53
741.097	57.58
741.415	57.54
741.733	57.46
742.051	57.42
742.369	57.35
742.687	57.34
743.004	57.16
743.322	57.05
743.64	57.22
743.957	57.22
744.275	57.25
744.593	57.19
744.91	57.24
745.227	57.18
745.545	57.28
745.862	57.2
746.179	57.27
746.497	57.45
746.814	57.55
747.131	57.65
747.448	57.68
747.765	57.76
748.082	57.76
748.399	57.73
748.716	57.8
749.033	57.86
749.35	57.95
749.667	58.06
749.983	58.05
750.3	58.05
750.617	58.02
750.933	58.13
751.25	58.11
751.566	58.32
751.883	58.36
752.199	58.45
752.516	58.55
752.832	58.57
753.148	58.49
753.464	58.39
753.781	58.4
754.097	58.45
754.413	58.38
754.729	58.38
755.045	58.23
755.361	58.16
755.677	58.04
755.992	57.96
756.308	57.91
756.624	57.8
756.94	57.83
757.255	57.83
757.571	57.85
757.887	58.01
758.202	57.96
758.518	57.89
758.833	57.92
759.148	58.05
759.464	58.03
759.779	58.01
760.094	58.05
760.41	58.05
760.725	58.14
761.04	58.04
761.355	57.91
761.67	57.95
761.985	58.05
762.3	58.12
762.615	58.11
762.93	58.2
763.244	58.25
763.559	58.31
763.874	58.35
764.188	58.39
764.503	58.48
764.818	58.59
765.132	58.63
765.447	58.67
765.761	58.63
766.075	58.58
766.39	58.55
766.704	58.71
767.018	58.73
767.332	58.71
767.646	58.65
767.961	58.64
768.275	58.55
768.589	58.61
768.903	58.57
769.216	58.72
769.53	58.79
769.844	58.83
770.158	58.7
770.472	58.64
770.785	58.72
771.099	58.76
771.413	58.87
771.726	58.96
772.04	58.91
772.353	59.04
772.666	58.98
772.98	59.06
773.293	59.14
773.606	59.25
773.919	59.34
774.233	59.43
774.546	59.39
774.859	59.26
775.172	59.3
775.485	59.25
775.798	59.15
776.111	59.08
776.423	58.97
776.736	58.9
777.049	58.8
777.362	58.79
777.674	58.67
777.987	58.54
778.299	58.62
778.612	58.67
778.924	58.72
779.237	58.77
779.549	58.88
779.862	58.92
780.174	59
780.486	59.04
780.798	58.99
781.11	59.01
781.422	59.27
781.735	59.18
782.046	59.22
782.358	59.34
782.67	59.35
782.982	59.48
783.294	59.61
783.606	59.42
783.917	59.44
784.229	59.57
784.541	59.67
784.852	59.56
785.164	59.76
785.475	59.7
785.787	59.65
786.098	59.84
786.41	59.7
786.721	59.65
787.032	59.64
787.343	59.67
787.654	59.58
787.966	59.62
788.277	59.83
788.588	59.81
788.899	59.85
789.209	59.81
789.52	59.68
789.831	59.69
790.142	59.89
790.453	59.98
790.763	60.05
791.074	60.06
791.385	59.93
791.695	59.81
792.006	59.73
792.316	59.6
792.626	59.67
792.937	59.76
793.247	59.76
793.557	59.6
793.868	59.72
794.178	59.8
794.488	59.96
794.798	59.92
795.108	60.05
795.418	60.22
795.728	60.23
796.038	60.29
796.348	60.15
796.657	60.04
796.967	59.92
797.277	59.84
797.587	59.7
797.896	59.51
798.206	59.72
798.515	59.63
798.825	59.57
799.134	59.78
799.444	59.67
799.753	59.73
800.062	59.92
800.371	60.36
800.681	60.4
800.99	60.38
801.299	60.38
801.608	60.15
801.917	60.14
802.226	60.35
802.535	60.37
802.844	60.32
803.152	60.07
803.461	59.94
803.77	59.5
804.078	59.63
804.387	60.01
804.696	60.08
805.004	60.27
805.313	60.16
805.621	59.99
805.93	59.85
806.238	60.01
806.546	59.94
806.854	60.05
807.163	60.27
807.471	60.03
807.779	59.77
808.087	60.03
808.395	59.81
808.703	59.67
809.011	59.7
809.319	59.76
809.626	60.09
809.934	60.54
810.242	60.48
810.55	60.25
810.857	60.42
811.165	60.28
811.472	60.3
811.78	60.47
812.087	60.63
812.395	60.4
812.702	60.21
813.009	60.14
813.317	59.97
813.624	59.94
813.931	59.99
814.238	59.66
814.545	59.72
814.852	59.25
815.159	59.29
815.466	59.37
815.773	59.45
816.08	59.34
816.387	59.03
816.693	59.17
817	59.11
817.307	59.04
817.613	59.46
817.92	59.32
818.226	59.78
818.533	60.03
818.839	60.21
819.146	60.09
819.452	60.35
819.758	60.35
820.064	60.38
820.371	60.48
820.677	60.68
820.983	60.35
821.289	60.55
821.595	60.39
821.901	60.03
822.207	59.79
822.512	60.13
822.818	59.84
823.124	60.05
823.43	59.6
823.735	59.59
824.041	59.82
824.347	60.34
824.652	60.46
824.957	60.48
825.263	60.8
825.568	61.09
825.874	61.06
826.179	61.48
826.484	61.32
826.789	61.55
827.094	61.73
827.399	61.61
827.705	61.43
828.01	60.99
828.314	61.92
828.619	61.46
828.924	61.23
829.229	61.15
829.534	60.89
829.838	60.88
830.143	60.96
830.448	60.89
830.752	60.64
831.057	60.73
831.361	61.15
831.666	60.24
831.97	60.52
832.274	60.7
832.579	61
832.883	61.27
833.187	61.49
833.491	61.55
833.795	61.15
834.099	61.1
834.403	61.07
834.707	61.16
835.011	60.86
835.315	60.41
835.619	60.12
835.923	59.87
836.226	59.74
836.53	59.58
836.834	59.99
837.137	60.55
837.441	60.55
837.744	60.67
838.048	60.03
838.351	60.33
838.654	61.2
838.958	61.31
839.261	61.18
839.564	61.29
839.867	61.57
840.17	61.39
840.473	61.61
840.776	61.46
841.079	61.35
841.382	61.52
841.685	61.2
841.988	60.72
842.291	60.85
842.593	61.03
842.896	61.14
843.199	60.74
843.501	60.7
843.804	59.99
844.106	60.22
844.409	59.78
844.711	60.12
845.013	60.69
845.316	60.68
845.618	60.5
845.92	60.12
846.222	59.71
846.524	59.64
846.826	59.54
847.128	60.19
847.43	60.2
847.732	60.39
848.034	60.66
848.336	59.74
848.638	59.88
848.939	59.76
849.241	59.8
849.543	60.32
849.844	60.54
850.146	60.6
850.447	60.01
850.749	59.9
851.05	59.58
851.351	59.03
851.653	60.02
851.954	60.06
852.255	60.48
852.556	60.62
852.857	59.83
853.158	59.55
853.459	59.44
853.76	60.32
854.061	60.83
854.362	61.44
854.663	62.36
854.964	62.25
855.264	62.27
855.565	61.51
855.866	61.2
856.166	60.71
856.467	60.78
856.767	60.19
857.068	59.76
857.368	59.41
857.668	58.69
857.969	58.2
858.269	57.7
858.569	57.11
858.869	57.58
859.169	58.17
859.469	58.7
859.769	58.63
860.069	59.08
860.369	59.01
860.669	58.77
860.969	59.24
861.269	59.25
861.568	59.02
861.868	60.03
862.168	60.04
862.467	59.89
862.767	60.33
863.066	60.71
863.366	61.2
863.665	60.92
863.964	61.93
864.264	62.56
864.563	62.72
864.862	63.32
865.161	62.93
865.46	63.7
865.759	62.78
866.058	61.98
866.357	60.85
866.656	61.34
866.955	60.67
867.254	59.04
867.552	58.59
867.851	58.66
868.15	58.58
868.448	58.22
868.747	57.11
869.045	57.07
869.344	57.9
869.642	58.74
869.941	58.03
870.239	58.48
870.537	59.06
870.836	58.64
871.134	58.16
871.432	58.56
871.73	57.49
872.028	57.39
872.326	57.92
872.624	57.58
872.922	57.85
873.22	57.51
873.517	57.88
873.815	57.73
874.113	57.58
874.411	58.26
874.708	57.95
875.006	58.58
875.303	57.97
875.601	57.31
875.898	56.93
876.195	55.95
876.493	55.82
876.79	55.56
877.087	56.88
877.384	56.58
877.682	54.76
877.979	54.01
878.276	53.91
878.573	54.46
878.87	55.23
879.166	55.45
879.463	56.35
