Data from polyxenes_ven_HW_orange_right_1_Reflection__0__06.txt Node

Date: Sun Dec 11 10:41:44 EST 2022
User: abbyrobinson
Spectrometer: USB2G8287
Scans to average: 10
Trigger mode: 4
Integration Time (sec): 1.000000E-1
Electric dark correction enabled: true
Boxcar width: 5
XAxis mode: Wavelengths
Number of Pixels in Spectrum: 2048
>>>>>Begin Spectral Data<<<<<
177.272	217.5
177.658	216.44
178.044	138.75
178.43	147.5
178.816	-5.04
179.203	23.89
179.589	-603.75
179.975	-75.71
180.361	-18.55
180.747	-35.95
181.133	53.88
181.519	-314.52
181.904	216.44
182.29	144.13
182.676	152.89
183.062	54.95
183.447	22.1
183.833	42.14
184.219	40.41
184.604	50.18
184.99	-48.41
185.375	-13.76
185.761	-11.33
186.146	-3.64
186.531	4.24
186.917	5.55
187.302	4.93
187.687	3.8
188.073	9.88
188.458	13.61
188.843	15.7
189.228	13.02
189.613	10.43
189.998	8.97
190.383	12.28
190.768	13.16
191.153	14.91
191.538	12.23
191.923	8.98
192.307	7.18
192.692	1.67
193.077	-3.68
193.461	-3.37
193.846	0.46
194.231	-0.18
194.615	-4.2
195	-2.8
195.384	0.25
195.769	8.21
196.153	10.96
196.537	11.32
196.922	15.64
197.306	16.56
197.69	15.55
198.074	8.3
198.458	10.35
198.843	8.67
199.227	7.61
199.611	7.08
199.995	5.74
200.379	3.24
200.763	3.39
201.146	3.66
201.53	5.18
201.914	2.6
202.298	3.68
202.681	3.51
203.065	9.11
203.449	8.95
203.832	8.29
204.216	10.67
204.599	16.68
204.983	18.76
205.366	16.76
205.75	16.63
206.133	19.46
206.516	25.01
206.9	26.78
207.283	27.82
207.666	26.72
208.049	24.41
208.432	20.17
208.815	17.12
209.198	13.01
209.581	11.56
209.964	12.73
210.347	13.03
210.73	9.29
211.113	7.66
211.496	5.37
211.879	6.15
212.261	7.61
212.644	9.39
213.027	7.25
213.409	5.75
213.792	7.52
214.174	8.26
214.557	10.73
214.939	11.7
215.322	11.76
215.704	11.97
216.086	12.02
216.469	9.87
216.851	9.96
217.233	10.48
217.615	12.86
217.997	13.68
218.379	13.23
218.761	8.86
219.143	12.05
219.525	13.16
219.907	10.83
220.289	9.69
220.671	12.29
221.053	13.57
221.435	14.71
221.816	14.66
222.198	14.64
222.58	14.22
222.961	16.89
223.343	12.79
223.724	10.87
224.106	11.34
224.487	13.18
224.869	15.26
225.25	13.82
225.631	13.4
226.013	14.43
226.394	14.27
226.775	13.77
227.156	13.48
227.537	13.61
227.919	14.23
228.3	14.53
228.681	13.58
229.062	12.45
229.442	12.63
229.823	13.45
230.204	13.18
230.585	12.4
230.966	11.82
231.347	11.38
231.727	11.37
232.108	10.75
232.488	10.46
232.869	10.48
233.25	11.01
233.63	10.44
234.01	9.57
234.391	9.29
234.771	9.29
235.152	9.45
235.532	9.77
235.912	9.87
236.292	10.28
236.672	10.22
237.053	10.2
237.433	9.57
237.813	9.6
238.193	9.4
238.573	9.32
238.953	9.37
239.333	8.97
239.712	8.78
240.092	8.78
240.472	8.66
240.852	8.79
241.231	8.73
241.611	8.66
241.991	8.69
242.37	8.8
242.75	8.88
243.129	8.79
243.509	8.93
243.888	8.94
244.267	8.93
244.647	8.96
245.026	8.9
245.405	8.9
245.784	8.87
246.164	8.93
246.543	8.88
246.922	8.86
247.301	8.79
247.68	8.83
248.059	8.73
248.438	8.73
248.817	8.62
249.195	8.59
249.574	8.62
249.953	8.66
250.332	8.54
250.71	8.48
251.089	8.34
251.468	8.41
251.846	8.37
252.225	8.38
252.603	8.36
252.982	8.36
253.36	8.32
253.738	8.28
254.117	8.31
254.495	8.26
254.873	8.35
255.251	8.44
255.63	8.47
256.008	8.47
256.386	8.42
256.764	8.35
257.142	8.33
257.52	8.36
257.898	8.38
258.276	8.25
258.653	8.22
259.031	8.14
259.409	8.07
259.787	7.97
260.164	7.91
260.542	7.93
260.92	7.89
261.297	7.81
261.675	7.77
262.052	7.63
262.43	7.62
262.807	7.63
263.184	7.59
263.562	7.54
263.939	7.46
264.316	7.42
264.693	7.31
265.07	7.28
265.448	7.21
265.825	7.13
266.202	7.12
266.579	7.06
266.956	6.96
267.333	6.89
267.709	6.83
268.086	6.8
268.463	6.76
268.84	6.74
269.216	6.65
269.593	6.62
269.97	6.59
270.346	6.56
270.723	6.51
271.099	6.48
271.476	6.41
271.852	6.32
272.229	6.25
272.605	6.19
272.981	6.13
273.358	6.13
273.734	6.11
274.11	6.1
274.486	5.99
274.862	5.97
275.238	5.9
275.614	5.84
275.99	5.82
276.366	5.73
276.742	5.63
277.118	5.56
277.494	5.48
277.87	5.43
278.245	5.32
278.621	5.26
278.997	5.12
279.372	5.09
279.748	5.08
280.123	5.09
280.499	5.07
280.874	5.06
281.25	5.01
281.625	4.97
282	4.86
282.376	4.79
282.751	4.83
283.126	4.84
283.501	4.78
283.876	4.75
284.252	4.63
284.627	4.62
285.002	4.62
285.377	4.62
285.751	4.56
286.126	4.53
286.501	4.53
286.876	4.42
287.251	4.37
287.625	4.33
288	4.32
288.375	4.32
288.749	4.3
289.124	4.23
289.498	4.16
289.873	4.16
290.247	4.18
290.622	4.1
290.996	4.11
291.37	4.1
291.745	4.09
292.119	4.03
292.493	4.01
292.867	3.98
293.241	3.92
293.616	3.92
293.99	3.9
294.364	3.88
294.737	3.97
295.111	3.93
295.485	3.97
295.859	3.96
296.233	3.98
296.607	4
296.98	3.95
297.354	4.03
297.728	4.05
298.101	4.04
298.475	4.01
298.848	3.91
299.222	3.89
299.595	3.84
299.968	3.82
300.342	3.83
300.715	3.8
301.088	3.83
301.462	3.73
301.835	3.69
302.208	3.72
302.581	3.75
302.954	3.75
303.327	3.74
303.7	3.76
304.073	3.76
304.446	3.72
304.819	3.73
305.192	3.7
305.564	3.72
305.937	3.71
306.31	3.67
306.682	3.62
307.055	3.64
307.428	3.66
307.8	3.65
308.173	3.6
308.545	3.62
308.917	3.55
309.29	3.53
309.662	3.54
310.034	3.56
310.407	3.53
310.779	3.6
311.151	3.61
311.523	3.62
311.895	3.61
312.267	3.67
312.639	3.6
313.011	3.65
313.383	3.72
313.755	3.77
314.127	3.79
314.498	3.84
314.87	3.8
315.242	3.74
315.614	3.7
315.985	3.75
316.357	3.75
316.728	3.85
317.1	3.84
317.471	3.81
317.843	3.74
318.214	3.74
318.585	3.79
318.957	3.75
319.328	3.77
319.699	3.77
320.07	3.73
320.441	3.77
320.813	3.74
321.184	3.75
321.555	3.7
321.926	3.71
322.297	3.74
322.667	3.72
323.038	3.79
323.409	3.84
323.78	3.85
324.151	3.82
324.521	3.79
324.892	3.71
325.262	3.71
325.633	3.75
326.004	3.71
326.374	3.71
326.744	3.68
327.115	3.64
327.485	3.57
327.855	3.56
328.226	3.54
328.596	3.52
328.966	3.56
329.336	3.53
329.706	3.54
330.076	3.59
330.447	3.56
330.816	3.56
331.186	3.59
331.556	3.59
331.926	3.69
332.296	3.74
332.666	3.75
333.036	3.76
333.405	3.72
333.775	3.69
334.144	3.67
334.514	3.63
334.884	3.58
335.253	3.51
335.623	3.49
335.992	3.41
336.361	3.35
336.731	3.33
337.1	3.33
337.469	3.36
337.838	3.39
338.208	3.38
338.577	3.48
338.946	3.43
339.315	3.43
339.684	3.45
340.053	3.44
340.422	3.4
340.79	3.37
341.159	3.36
341.528	3.32
341.897	3.3
342.266	3.31
342.634	3.19
343.003	3.22
343.371	3.22
343.74	3.2
344.108	3.23
344.477	3.29
344.845	3.3
345.214	3.26
345.582	3.24
345.95	3.2
346.319	3.19
346.687	3.19
347.055	3.15
347.423	3.1
347.791	3.11
348.159	3.07
348.527	3.03
348.895	2.99
349.263	3
349.631	3.02
349.999	2.99
350.367	2.91
350.734	2.9
351.102	2.93
351.47	2.93
351.837	2.94
352.205	2.88
352.573	2.89
352.94	2.9
353.308	2.86
353.675	2.83
354.042	2.81
354.41	2.81
354.777	2.8
355.144	2.77
355.511	2.82
355.879	2.81
356.246	2.84
356.613	2.85
356.98	2.79
357.347	2.8
357.714	2.77
358.081	2.79
358.448	2.79
358.815	2.8
359.181	2.76
359.548	2.71
359.915	2.64
360.282	2.61
360.648	2.57
361.015	2.6
361.381	2.6
361.748	2.56
362.114	2.57
362.481	2.61
362.847	2.63
363.214	2.59
363.58	2.59
363.946	2.59
364.312	2.61
364.678	2.57
365.045	2.58
365.411	2.57
365.777	2.64
366.143	2.61
366.509	2.63
366.875	2.59
367.241	2.65
367.606	2.66
367.972	2.72
368.338	2.7
368.704	2.74
369.069	2.67
369.435	2.57
369.801	2.54
370.166	2.58
370.532	2.52
370.897	2.51
371.263	2.49
371.628	2.45
371.993	2.37
372.359	2.36
372.724	2.37
373.089	2.47
373.454	2.57
373.82	2.58
374.185	2.52
374.55	2.51
374.915	2.48
375.28	2.53
375.645	2.51
376.01	2.52
376.374	2.49
376.739	2.49
377.104	2.42
377.469	2.38
377.833	2.35
378.198	2.39
378.563	2.41
378.927	2.4
379.292	2.41
379.656	2.43
380.021	2.44
380.385	2.51
380.749	2.48
381.114	2.5
381.478	2.51
381.842	2.55
382.206	2.55
382.571	2.54
382.935	2.57
383.299	2.52
383.663	2.55
384.027	2.55
384.391	2.5
384.755	2.56
385.118	2.57
385.482	2.55
385.846	2.52
386.21	2.5
386.573	2.5
386.937	2.51
387.301	2.49
387.664	2.46
388.028	2.47
388.391	2.45
388.755	2.42
389.118	2.44
389.481	2.43
389.845	2.44
390.208	2.44
390.571	2.45
390.934	2.44
391.298	2.43
391.661	2.47
392.024	2.49
392.387	2.5
392.75	2.5
393.113	2.45
393.476	2.47
393.838	2.47
394.201	2.44
394.564	2.4
394.927	2.43
395.289	2.44
395.652	2.41
396.015	2.37
396.377	2.38
396.74	2.38
397.102	2.38
397.465	2.35
397.827	2.31
398.189	2.28
398.552	2.29
398.914	2.28
399.276	2.29
399.638	2.28
400	2.29
400.363	2.25
400.725	2.25
401.087	2.25
401.449	2.22
401.81	2.27
402.172	2.29
402.534	2.31
402.896	2.29
403.258	2.28
403.619	2.24
403.981	2.28
404.343	2.3
404.704	2.3
405.066	2.31
405.427	2.38
405.789	2.33
406.15	2.36
406.512	2.36
406.873	2.33
407.234	2.34
407.596	2.38
407.957	2.36
408.318	2.37
408.679	2.33
409.04	2.33
409.401	2.34
409.762	2.36
410.123	2.32
410.484	2.31
410.845	2.31
411.206	2.3
411.567	2.31
411.927	2.28
412.288	2.27
412.649	2.19
413.009	2.17
413.37	2.14
413.731	2.13
414.091	2.16
414.452	2.18
414.812	2.21
415.172	2.22
415.533	2.22
415.893	2.28
416.253	2.22
416.613	2.31
416.974	2.34
417.334	2.35
417.694	2.37
418.054	2.35
418.414	2.33
418.774	2.3
419.134	2.31
419.494	2.29
419.853	2.27
420.213	2.37
420.573	2.4
420.933	2.36
421.292	2.38
421.652	2.39
422.011	2.42
422.371	2.46
422.73	2.48
423.09	2.48
423.449	2.49
423.809	2.5
424.168	2.44
424.527	2.43
424.887	2.44
425.246	2.43
425.605	2.45
425.964	2.45
426.323	2.42
426.682	2.4
427.041	2.37
427.4	2.36
427.759	2.34
428.118	2.33
428.477	2.28
428.835	2.31
429.194	2.34
429.553	2.33
429.911	2.33
430.27	2.37
430.629	2.33
430.987	2.33
431.346	2.31
431.704	2.33
432.062	2.33
432.421	2.35
432.779	2.33
433.137	2.27
433.496	2.25
433.854	2.24
434.212	2.24
434.57	2.33
434.928	2.35
435.286	2.38
435.644	2.34
436.002	2.36
436.36	2.43
436.718	2.44
437.075	2.47
437.433	2.49
437.791	2.49
438.149	2.5
438.506	2.48
438.864	2.46
439.221	2.48
439.579	2.49
439.936	2.48
440.294	2.45
440.651	2.47
441.009	2.46
441.366	2.42
441.723	2.43
442.08	2.42
442.437	2.43
442.795	2.44
443.152	2.42
443.509	2.4
443.866	2.41
444.223	2.44
444.58	2.44
444.936	2.51
445.293	2.55
445.65	2.55
446.007	2.56
446.363	2.56
446.72	2.55
447.077	2.56
447.433	2.6
447.79	2.6
448.146	2.58
448.503	2.55
448.859	2.5
449.215	2.47
449.572	2.48
449.928	2.49
450.284	2.5
450.641	2.52
450.997	2.56
451.353	2.58
451.709	2.64
452.065	2.67
452.421	2.71
452.777	2.73
453.133	2.79
453.488	2.79
453.844	2.79
454.2	2.83
454.556	2.88
454.911	2.92
455.267	2.91
455.623	2.86
455.978	2.85
456.334	2.87
456.689	2.9
457.045	2.91
457.4	2.96
457.755	2.99
458.111	3.01
458.466	2.99
458.821	2.99
459.176	3.02
459.531	3.03
459.886	3.01
460.242	3.03
460.597	3.02
460.951	2.96
461.306	2.93
461.661	2.9
462.016	2.89
462.371	2.9
462.726	2.93
463.08	2.93
463.435	2.97
463.79	3.03
464.144	3.05
464.499	3.03
464.853	3.07
465.208	3.09
465.562	3.14
465.916	3.05
466.271	3.1
466.625	3.05
466.979	3.08
467.333	3.06
467.688	3.07
468.042	3.05
468.396	3.15
468.75	3.17
469.104	3.16
469.458	3.13
469.811	3.22
470.165	3.21
470.519	3.25
470.873	3.25
471.227	3.29
471.58	3.27
471.934	3.32
472.287	3.3
472.641	3.3
472.995	3.32
473.348	3.37
473.701	3.4
474.055	3.45
474.408	3.48
474.761	3.55
475.115	3.57
475.468	3.6
475.821	3.62
476.174	3.63
476.527	3.62
476.88	3.62
477.233	3.61
477.586	3.59
477.939	3.52
478.292	3.51
478.645	3.45
478.998	3.47
479.35	3.47
479.703	3.49
480.056	3.5
480.408	3.54
480.761	3.6
481.113	3.61
481.466	3.67
481.818	3.73
482.171	3.77
482.523	3.81
482.875	3.82
483.228	3.86
483.58	3.86
483.932	3.88
484.284	3.91
484.636	3.91
484.988	3.96
485.34	3.99
485.692	4.01
486.044	4.02
486.396	4.06
486.748	4.09
487.1	4.13
487.451	4.11
487.803	4.13
488.155	4.14
488.506	4.14
488.858	4.16
489.209	4.19
489.561	4.21
489.912	4.23
490.264	4.25
490.615	4.28
490.966	4.28
491.318	4.32
491.669	4.34
492.02	4.39
492.371	4.45
492.722	4.47
493.073	4.49
493.424	4.55
493.775	4.6
494.126	4.62
494.477	4.67
494.828	4.7
495.179	4.79
495.53	4.82
495.88	4.86
496.231	4.89
496.582	4.95
496.932	4.95
497.283	4.93
497.633	4.99
497.984	5.04
498.334	5.07
498.684	5.12
499.035	5.15
499.385	5.21
499.735	5.27
500.086	5.3
500.436	5.3
500.786	5.33
501.136	5.45
501.486	5.48
501.836	5.5
502.186	5.6
502.536	5.64
502.886	5.65
503.235	5.71
503.585	5.74
503.935	5.8
504.285	5.92
504.634	6.06
504.984	6.09
505.333	6.16
505.683	6.22
506.032	6.22
506.382	6.27
506.731	6.35
507.08	6.39
507.43	6.45
507.779	6.48
508.128	6.51
508.477	6.54
508.826	6.59
509.176	6.63
509.525	6.7
509.874	6.75
510.222	6.8
510.571	6.87
510.92	6.94
511.269	7
511.618	7.1
511.967	7.17
512.315	7.24
512.664	7.27
513.012	7.34
513.361	7.39
513.71	7.49
514.058	7.59
514.406	7.65
514.755	7.74
515.103	7.83
515.451	7.92
515.8	8.02
516.148	8.08
516.496	8.19
516.844	8.26
517.192	8.37
517.54	8.43
517.888	8.49
518.236	8.55
518.584	8.61
518.932	8.66
519.28	8.75
519.628	8.84
519.975	8.94
520.323	9.06
520.671	9.14
521.018	9.22
521.366	9.37
521.713	9.44
522.061	9.55
522.408	9.65
522.756	9.79
523.103	9.9
523.45	9.92
523.798	10.04
524.145	10.09
524.492	10.21
524.839	10.27
525.186	10.34
525.533	10.53
525.88	10.64
526.227	10.81
526.574	10.92
526.921	11.03
527.268	11.23
527.615	11.36
527.961	11.52
528.308	11.65
528.655	11.78
529.001	11.9
529.348	11.96
529.694	12.12
530.041	12.2
530.387	12.34
530.734	12.45
531.08	12.57
531.426	12.67
531.773	12.81
532.119	13
532.465	13.19
532.811	13.4
533.157	13.53
533.503	13.62
533.849	13.8
534.195	13.92
534.541	14.07
534.887	14.17
535.233	14.28
535.579	14.38
535.924	14.49
536.27	14.61
536.616	14.69
536.961	14.84
537.307	14.97
537.652	15.08
537.998	15.18
538.343	15.35
538.689	15.52
539.034	15.67
539.379	15.86
539.725	15.91
540.07	16.1
540.415	16.24
540.76	16.4
541.105	16.55
541.45	16.67
541.795	16.83
542.14	16.93
542.485	17.06
542.83	17.22
543.175	17.32
543.519	17.54
543.864	17.64
544.209	17.78
544.554	17.91
544.898	18.12
545.243	18.3
545.587	18.43
545.932	18.56
546.276	18.75
546.621	18.85
546.965	19.02
547.309	19.12
547.653	19.27
547.998	19.43
548.342	19.61
548.686	19.75
549.03	19.89
549.374	20.03
549.718	20.2
550.062	20.32
550.406	20.48
550.75	20.61
551.094	20.82
551.437	20.93
551.781	21.07
552.125	21.21
552.468	21.34
552.812	21.44
553.156	21.64
553.499	21.8
553.843	21.92
554.186	22.06
554.529	22.21
554.873	22.29
555.216	22.44
555.559	22.58
555.902	22.66
556.246	22.81
556.589	23.01
556.932	23.12
557.275	23.25
557.618	23.39
557.961	23.56
558.304	23.67
558.646	23.89
558.989	23.98
559.332	24.08
559.675	24.25
560.017	24.36
560.36	24.49
560.703	24.68
561.045	24.8
561.388	24.93
561.73	25.09
562.073	25.25
562.415	25.34
562.757	25.52
563.1	25.67
563.442	25.81
563.784	25.95
564.126	26.04
564.468	26.12
564.81	26.25
565.152	26.42
565.494	26.53
565.836	26.65
566.178	26.81
566.52	27.01
566.862	27.23
567.204	27.38
567.545	27.57
567.887	27.78
568.229	27.85
568.57	28.03
568.912	28.16
569.253	28.34
569.595	28.48
569.936	28.59
570.277	28.69
570.619	28.81
570.96	28.97
571.301	29.08
571.642	29.12
571.984	29.22
572.325	29.31
572.666	29.4
573.007	29.43
573.348	29.51
573.689	29.62
574.03	29.68
574.37	29.74
574.711	29.78
575.052	29.83
575.393	29.95
575.733	30.1
576.074	30.19
576.414	30.27
576.755	30.38
577.095	30.48
577.436	30.58
577.776	30.68
578.117	30.79
578.457	30.91
578.797	31.02
579.137	31.12
579.478	31.18
579.818	31.29
580.158	31.4
580.498	31.52
580.838	31.65
581.178	31.78
581.518	31.92
581.858	32.03
582.197	32.14
582.537	32.29
582.877	32.41
583.217	32.54
583.556	32.65
583.896	32.78
584.235	32.92
584.575	33.06
584.914	33.14
585.254	33.27
585.593	33.39
585.933	33.52
586.272	33.64
586.611	33.75
586.95	33.9
587.289	34.05
587.629	34.18
587.968	34.25
588.307	34.36
588.646	34.51
588.985	34.61
589.323	34.74
589.662	34.9
590.001	35.02
590.34	35.14
590.679	35.26
591.017	35.39
591.356	35.55
591.695	35.76
592.033	35.87
592.372	36.01
592.71	36.18
593.048	36.31
593.387	36.37
593.725	36.52
594.063	36.67
594.402	36.78
594.74	36.9
595.078	36.97
595.416	37.01
595.754	37.18
596.092	37.3
596.43	37.41
596.768	37.51
597.106	37.66
597.444	37.74
597.781	37.87
598.119	38.03
598.457	38.18
598.795	38.3
599.132	38.41
599.47	38.49
599.807	38.59
600.145	38.72
600.482	38.83
600.82	38.92
601.157	39.02
601.494	39.11
601.831	39.21
602.169	39.29
602.506	39.43
602.843	39.59
603.18	39.68
603.517	39.83
603.854	39.94
604.191	40.09
604.528	40.23
604.865	40.46
605.202	40.58
605.538	40.69
605.875	40.82
606.212	40.91
606.548	40.98
606.885	41.11
607.222	41.19
607.558	41.28
607.895	41.35
608.231	41.45
608.567	41.5
608.904	41.64
609.24	41.7
609.576	41.8
609.912	41.91
610.248	42.06
610.585	42.13
610.921	42.27
611.257	42.34
611.593	42.48
611.929	42.6
612.264	42.69
612.6	42.68
612.936	42.83
613.272	42.95
613.608	43.05
613.943	43.14
614.279	43.28
614.614	43.36
614.95	43.5
615.285	43.64
615.621	43.71
615.956	43.82
616.292	43.98
616.627	44.08
616.962	44.2
617.297	44.39
617.632	44.47
617.968	44.57
618.303	44.7
618.638	44.81
618.973	44.87
619.308	45.03
619.643	45.14
619.977	45.25
620.312	45.29
620.647	45.38
620.982	45.42
621.316	45.57
621.651	45.7
621.986	45.82
622.32	45.93
622.655	46.07
622.989	46.11
623.324	46.18
623.658	46.31
623.992	46.49
624.326	46.62
624.661	46.7
624.995	46.8
625.329	46.95
625.663	47.1
625.997	47.24
626.331	47.28
626.665	47.42
626.999	47.53
627.333	47.59
627.667	47.72
628.001	47.83
628.334	47.94
628.668	48.07
629.002	48.13
629.335	48.18
629.669	48.23
630.002	48.41
630.336	48.49
630.669	48.62
631.003	48.77
631.336	48.81
631.669	48.9
632.003	49.03
632.336	49.1
632.669	49.24
633.002	49.35
633.335	49.47
633.668	49.6
634.001	49.74
634.334	49.84
634.667	49.89
635	50.05
635.333	50.12
635.665	50.26
635.998	50.29
636.331	50.39
636.663	50.51
636.996	50.61
637.328	50.7
637.661	50.76
637.993	50.86
638.326	51
638.658	51.1
638.99	51.27
639.323	51.38
639.655	51.53
639.987	51.61
640.319	51.71
640.651	51.82
640.983	52.01
641.315	52.14
641.647	52.28
641.979	52.39
642.311	52.51
642.643	52.53
642.975	52.67
643.306	52.88
643.638	53.04
643.97	53.13
644.301	53.21
644.633	53.33
644.964	53.5
645.296	53.62
645.627	53.79
645.959	53.9
646.29	54.07
646.621	54.07
646.952	54.14
647.284	54.11
647.615	54.26
647.946	54.45
648.277	54.5
648.608	54.6
648.939	54.7
649.27	54.78
649.601	54.88
649.931	54.95
650.262	54.98
650.593	55.06
650.924	55.17
651.254	55.26
651.585	55.28
651.915	55.29
652.246	55.27
652.576	55.37
652.907	55.38
653.237	55.46
653.568	55.56
653.898	55.78
654.228	55.84
654.558	55.96
654.888	56.03
655.219	56.12
655.549	56.06
655.879	55.93
656.209	55.62
656.539	55.55
656.868	55.51
657.198	55.47
657.528	55.42
657.858	55.42
658.188	55.44
658.517	55.48
658.847	55.53
659.176	55.57
659.506	55.64
659.835	55.75
660.165	55.87
660.494	55.93
660.824	56
661.153	56.1
661.482	56.19
661.811	56.27
662.14	56.29
662.47	56.35
662.799	56.45
663.128	56.56
663.457	56.72
663.786	56.76
664.114	56.89
664.443	57.08
664.772	57.2
665.101	57.38
665.43	57.6
665.758	58.02
666.087	58.25
666.415	58.58
666.744	58.88
667.072	59.06
667.401	59.36
667.729	59.53
668.058	59.64
668.386	59.82
668.714	59.85
669.042	59.95
669.371	59.97
669.699	59.98
670.027	60.04
670.355	60.16
670.683	60.34
671.011	60.4
671.339	60.45
671.666	60.61
671.994	60.66
672.322	60.72
672.65	60.8
672.977	60.86
673.305	60.97
673.633	61.03
673.96	60.98
674.288	60.93
674.615	60.95
674.943	61.09
675.27	61.2
675.597	61.26
675.924	61.46
676.252	61.51
676.579	61.55
676.906	61.57
677.233	61.75
677.56	61.8
677.887	61.91
678.214	62.11
678.541	62.22
678.868	62.19
679.195	62.22
679.521	62.19
679.848	62.27
680.175	62.25
680.501	62.37
680.828	62.32
681.154	62.43
681.481	62.5
681.807	62.36
682.134	62.4
682.46	62.43
682.787	62.51
683.113	62.55
683.439	62.57
683.765	62.75
684.091	62.77
684.417	62.83
684.743	62.94
685.069	62.89
685.395	63.01
685.721	63.01
686.047	63.04
686.373	63.03
686.699	63.03
687.024	63.11
687.35	63.13
687.676	63.14
688.001	63.13
688.327	63.18
688.652	63.21
688.978	63.21
689.303	63.25
689.629	63.38
689.954	63.36
690.279	63.48
690.604	63.5
690.93	63.55
691.255	63.69
691.58	63.75
691.905	63.72
692.23	63.71
692.555	63.84
692.88	63.88
693.204	63.95
693.529	64.07
693.854	64.11
694.179	64.19
694.503	64.23
694.828	64.23
695.153	64.27
695.477	64.36
695.802	64.52
696.126	64.44
696.451	64.47
696.775	64.43
697.099	64.5
697.423	64.6
697.748	64.62
698.072	64.66
698.396	64.71
698.72	64.83
699.044	64.88
699.368	64.89
699.692	64.92
700.016	64.99
700.34	65
700.664	65.03
700.987	65.08
701.311	65.06
701.635	65.03
701.958	65.15
702.282	65.22
702.606	65.24
702.929	65.26
703.252	65.35
703.576	65.41
703.899	65.48
704.223	65.64
704.546	65.63
704.869	65.77
705.192	65.87
705.515	65.79
705.838	65.73
706.161	65.72
706.484	65.8
706.807	65.9
707.13	65.88
707.453	65.92
707.776	65.76
708.099	65.77
708.421	65.85
708.744	65.69
709.067	65.75
709.389	65.85
709.712	65.94
710.034	66.07
710.357	66.04
710.679	66.12
711.001	66.15
711.324	66.28
711.646	66.25
711.968	66.14
712.29	66.32
712.612	66.3
712.935	66.35
713.257	66.43
713.579	66.4
713.9	66.43
714.222	66.47
714.544	66.51
714.866	66.57
715.188	66.67
715.509	66.82
715.831	66.91
716.153	67.04
716.474	67.03
716.796	67
717.117	67.03
717.439	67.02
717.76	67.16
718.081	67.19
718.403	67.32
718.724	67.33
719.045	67.31
719.366	67.4
719.687	67.36
720.009	67.41
720.33	67.47
720.651	67.59
720.971	67.61
721.292	67.51
721.613	67.53
721.934	67.47
722.255	67.48
722.575	67.48
722.896	67.45
723.217	67.56
723.537	67.57
723.858	67.7
724.178	67.73
724.499	67.82
724.819	67.81
725.139	67.82
725.46	67.7
725.78	67.75
726.1	67.86
726.42	67.83
726.74	67.8
727.06	67.79
727.38	67.69
727.7	67.67
728.02	67.68
728.34	67.65
728.66	67.78
728.98	67.79
729.299	67.7
729.619	67.69
729.939	67.75
730.258	67.77
730.578	67.84
730.897	67.88
731.217	67.74
731.536	67.8
731.856	67.68
732.175	67.7
732.494	67.84
732.814	67.91
733.133	67.94
733.452	67.93
733.771	67.98
734.09	67.98
734.409	67.88
734.728	68.02
735.047	67.96
735.366	68.15
735.684	68.16
736.003	68.15
736.322	68.32
736.641	68.29
736.959	68.27
737.278	68.31
737.596	68.31
737.915	68.4
738.233	68.45
738.552	68.44
738.87	68.43
739.188	68.33
739.507	68.37
739.825	68.46
740.143	68.49
740.461	68.62
740.779	68.61
741.097	68.63
741.415	68.66
741.733	68.5
742.051	68.61
742.369	68.65
742.687	68.65
743.004	68.63
743.322	68.41
743.64	68.44
743.957	68.28
744.275	68.4
744.593	68.46
744.91	68.39
745.227	68.66
745.545	68.72
745.862	68.9
746.179	69.07
746.497	69.2
746.814	69.48
747.131	69.53
747.448	69.7
747.765	69.58
748.082	69.61
748.399	69.87
748.716	69.78
749.033	69.81
749.35	69.64
749.667	69.54
749.983	69.49
750.3	69.34
750.617	69.48
750.933	69.53
751.25	69.67
751.566	69.66
751.883	69.57
752.199	69.68
752.516	69.67
752.832	69.67
753.148	69.87
753.464	69.97
753.781	69.99
754.097	69.85
754.413	69.87
754.729	69.81
755.045	69.82
755.361	69.85
755.677	69.68
755.992	69.68
756.308	69.83
756.624	69.7
756.94	69.78
757.255	69.84
757.571	69.91
757.887	69.83
758.202	69.85
758.518	69.74
758.833	69.64
759.148	69.83
759.464	69.77
759.779	69.69
760.094	69.8
760.41	69.56
760.725	69.45
761.04	69.37
761.355	69.28
761.67	69.35
761.985	69.4
762.3	69.49
762.615	69.37
762.93	69.38
763.244	69.45
763.559	69.4
763.874	69.64
764.188	69.65
764.503	69.8
764.818	69.94
765.132	69.85
765.447	69.93
765.761	69.92
766.075	70
766.39	70.22
766.704	70.31
767.018	70.3
767.332	70.16
767.646	70.18
767.961	70.34
768.275	70.26
768.589	70.22
768.903	70.17
769.216	70.3
769.53	70.36
769.844	70.24
770.158	70.11
770.472	70.32
770.785	70.48
771.099	70.58
771.413	70.2
771.726	70.31
772.04	70.39
772.353	70.4
772.666	70.22
772.98	70.05
773.293	70.12
773.606	70.22
773.919	70.29
774.233	70.22
774.546	70.27
774.859	70.4
775.172	70.32
775.485	70.32
775.798	70.35
776.111	70.59
776.423	70.87
776.736	70.91
777.049	70.8
777.362	70.59
777.674	70.57
777.987	70.59
778.299	70.67
778.612	70.78
778.924	70.82
779.237	70.83
779.549	70.75
779.862	70.72
780.174	70.63
780.486	70.73
780.798	70.65
781.11	70.81
781.422	70.82
781.735	70.75
782.046	70.76
782.358	70.82
782.67	70.96
782.982	70.95
783.294	70.89
783.606	71.15
783.917	71.11
784.229	71.22
784.541	71.15
784.852	71.13
785.164	71.21
785.475	71.26
785.787	71.04
786.098	70.79
786.41	70.94
786.721	70.9
787.032	70.58
787.343	70.85
787.654	70.9
787.966	70.95
788.277	70.76
788.588	70.87
788.899	70.86
789.209	71.1
789.52	71.3
789.831	71.22
790.142	71.1
790.453	71.25
790.763	71
791.074	70.95
791.385	70.77
791.695	71.14
792.006	71
792.316	70.97
792.626	70.95
792.937	70.89
793.247	70.77
793.557	71.03
793.868	71
794.178	70.99
794.488	70.94
794.798	70.85
795.108	70.8
795.418	70.67
795.728	70.66
796.038	70.76
796.348	70.87
796.657	70.86
796.967	70.8
797.277	70.76
797.587	70.77
797.896	70.77
798.206	71.07
798.515	70.95
798.825	71.1
799.134	71.29
799.444	71.3
799.753	71.22
800.062	71.14
800.371	71.23
800.681	71.08
800.99	71.25
801.299	71.19
801.608	70.95
801.917	70.7
802.226	70.81
802.535	70.81
802.844	70.67
803.152	70.7
803.461	70.89
803.77	70.83
804.078	70.81
804.387	70.64
804.696	70.75
805.004	70.87
805.313	70.96
805.621	70.89
805.93	71.13
806.238	71.21
806.546	71.1
806.854	71.08
807.163	71.13
807.471	71.57
807.779	71.74
808.087	71.43
808.395	71.49
808.703	71.63
809.011	71.73
809.319	71.4
809.626	71.29
809.934	71.45
810.242	71.34
810.55	71.17
810.857	71.21
811.165	71.32
811.472	71.69
811.78	71.67
812.087	71.69
812.395	71.88
812.702	71.55
813.009	71.71
813.317	71.73
813.624	71.97
813.931	72.16
814.238	71.88
814.545	71.4
814.852	71.3
815.159	71.27
815.466	71.56
815.773	71.08
816.08	71.47
816.387	71.75
816.693	71.68
817	71.42
817.307	71.36
817.613	71.49
817.92	71.43
818.226	71.35
818.533	71.64
818.839	71.37
819.146	71.6
819.452	71.54
819.758	71.19
820.064	71.33
820.371	71.56
820.677	71.86
820.983	71.91
821.289	72.1
821.595	72.2
821.901	71.89
822.207	72.05
822.512	72.02
822.818	71.79
823.124	71.87
823.43	71.75
823.735	71.58
824.041	71.17
824.347	71.05
824.652	71.32
824.957	70.99
825.263	71.14
825.568	71.13
825.874	71.11
826.179	71.45
826.484	71.13
826.789	71.25
827.094	71.35
827.399	71.66
827.705	71.79
828.01	71.7
828.314	71.92
828.619	71.41
828.924	71.06
829.229	71.25
829.534	71.23
829.838	71.9
830.143	71.71
830.448	71.65
830.752	71.72
831.057	71.51
831.361	71.08
831.666	71.14
831.97	71.54
832.274	71.49
832.579	71.14
832.883	70.89
833.187	70.39
833.491	70.32
833.795	70.45
834.099	69.94
834.403	69.92
834.707	70.22
835.011	70.48
835.315	70.62
835.619	70.83
835.923	70.79
836.226	71.02
836.53	71.22
836.834	71.1
837.137	70.83
837.441	71.14
837.744	71.08
838.048	71.04
838.351	70.48
838.654	69.95
838.958	69.93
839.261	70.28
839.564	70.25
839.867	70.12
840.17	70.54
840.473	70.59
840.776	69.99
841.079	70.3
841.382	70.03
841.685	69.69
841.988	70.16
842.291	70.63
842.593	70.26
842.896	70.01
843.199	69.74
843.501	69.61
843.804	69.2
844.106	69.31
844.409	69.2
844.711	69.71
845.013	70.35
845.316	70.23
845.618	70
845.92	69.74
846.222	69.6
846.524	69.79
846.826	70.14
847.128	70.3
847.43	70.8
847.732	70.36
848.034	69.58
848.336	69.77
848.638	69.66
848.939	69.34
849.241	69.32
849.543	69.65
849.844	69.44
850.146	69.05
850.447	69.34
850.749	69.34
851.05	70.15
851.351	70.92
851.653	70.29
851.954	70.7
852.255	70.53
852.556	70.61
852.857	70.52
853.158	70.44
853.459	70.5
853.76	71.1
854.061	70.53
854.362	70.23
854.663	70.02
854.964	70.21
855.264	69.71
855.565	70.11
855.866	69.85
856.166	69.7
856.467	70.56
856.767	70.11
857.068	69.7
857.368	70.19
857.668	70.1
857.969	70.3
858.269	70.46
858.569	70.1
858.869	69.84
859.169	70.05
859.469	70.5
859.769	69.47
860.069	69.39
860.369	69.21
860.669	69.75
860.969	70.06
861.269	69.87
861.568	69.53
861.868	70.12
862.168	70.14
862.467	70.16
862.767	69.97
863.066	70.49
863.366	70.82
863.665	70.1
863.964	69.48
864.264	69.49
864.563	69.34
864.862	68.86
865.161	67.84
865.46	68.49
865.759	68.44
866.058	67.45
866.357	66.89
866.656	66.52
866.955	66.99
867.254	66.54
867.552	65.81
867.851	65.6
868.15	66.25
868.448	66.83
868.747	65.39
869.045	65.43
869.344	65.66
869.642	65.52
869.941	66.05
870.239	66.07
870.537	66.51
870.836	66.57
871.134	65.69
871.432	65.74
871.73	65.69
872.028	65.33
872.326	65.62
872.624	66.85
872.922	67.24
873.22	67.29
873.517	67.62
873.815	67.55
874.113	66.98
874.411	69.64
874.708	69.37
875.006	69.18
875.303	70.52
875.601	70.49
875.898	69.84
876.195	70.45
876.493	69.1
876.79	68.78
877.087	68.43
877.384	68.04
877.682	65.63
877.979	65.39
878.276	65.61
878.573	65.11
878.87	64.48
879.166	63.7
879.463	62.33
