Data from polyxenes_ven_HW_orange_right_5_Reflection__0__41.txt Node

Date: Sun Dec 11 12:08:45 EST 2022
User: abbyrobinson
Spectrometer: USB2G8287
Scans to average: 10
Trigger mode: 4
Integration Time (sec): 1.000000E-1
Electric dark correction enabled: true
Boxcar width: 5
XAxis mode: Wavelengths
Number of Pixels in Spectrum: 2048
>>>>>Begin Spectral Data<<<<<
177.272	500
177.658	1152.63
178.044	1080
178.43	306.45
178.816	461.54
179.203	239.33
179.589	97.86
179.975	151.55
180.361	154.05
180.747	-1260
181.133	-27.27
181.519	-54.93
181.904	1152.63
182.29	495.92
182.676	157.4
183.062	111.81
183.447	100.55
183.833	69.68
184.219	63.55
184.604	79.03
184.99	117.04
185.375	-137.38
185.761	-57.82
186.146	-19.91
186.531	-1.99
186.917	4.22
187.302	-1.97
187.687	9.37
188.073	20.38
188.458	21.24
188.843	26.94
189.228	28.51
189.613	23.26
189.998	21.26
190.383	24.59
190.768	20.95
191.153	19.24
191.538	17.65
191.923	15.33
192.307	6.28
192.692	1.85
193.077	-3.03
193.461	-6.07
193.846	-1.96
194.231	-2.3
194.615	-4.56
195	0.53
195.384	1.11
195.769	6.86
196.153	5.93
196.537	6.96
196.922	7.66
197.306	7.85
197.69	10.51
198.074	10.02
198.458	15.08
198.843	11.98
199.227	11.42
199.611	13.24
199.995	11.37
200.379	11.63
200.763	14.3
201.146	16.91
201.53	17.67
201.914	14.33
202.298	9.84
202.681	7.01
203.065	13.79
203.449	15.04
203.832	13.57
204.216	15.5
204.599	24.76
204.983	26.58
205.366	25.41
205.75	23.31
206.133	23.13
206.516	27.03
206.9	27.69
207.283	25.5
207.666	24.46
208.049	26.14
208.432	25.14
208.815	15.7
209.198	12.79
209.581	12.84
209.964	15.08
210.347	14.67
210.73	10.25
211.113	10.16
211.496	10.07
211.879	10.37
212.261	9.8
212.644	11.7
213.027	13.3
213.409	12.46
213.792	14.15
214.174	14.24
214.557	19.07
214.939	21.27
215.322	19.8
215.704	20.55
216.086	20.46
216.469	15.48
216.851	17.17
217.233	16.74
217.615	17.26
217.997	15.25
218.379	13.01
218.761	8.44
219.143	8.34
219.525	10.34
219.907	6.62
220.289	3.83
220.671	5.09
221.053	3.54
221.435	2.93
221.816	2.89
222.198	3.66
222.58	4.06
222.961	2.87
223.343	-0.3
223.724	-0.54
224.106	0.75
224.487	4.87
224.869	10.47
225.25	9.47
225.631	11.18
226.013	11.76
226.394	11.27
226.775	9.63
227.156	10.21
227.537	12.34
227.919	11.82
228.3	11.79
228.681	10
229.062	8.22
229.442	7.45
229.823	6.65
230.204	5.75
230.585	5.79
230.966	6.21
231.347	6.44
231.727	5.64
232.108	5.42
232.488	5.24
232.869	5.87
233.25	6.03
233.63	5.97
234.01	5.83
234.391	5.81
234.771	6.17
235.152	6.48
235.532	6.54
235.912	6.43
236.292	6.45
236.672	6.59
237.053	6.38
237.433	6.42
237.813	6.5
238.193	6.52
238.573	6.73
238.953	6.54
239.333	6.41
239.712	6.07
240.092	6.22
240.472	6.26
240.852	6.34
241.231	6.26
241.611	5.92
241.991	5.98
242.37	5.98
242.75	5.93
243.129	5.93
243.509	5.92
243.888	6.12
244.267	6.04
244.647	6.02
245.026	5.92
245.405	5.96
245.784	6.07
246.164	6.06
246.543	6.11
246.922	6.14
247.301	6.04
247.68	6.07
248.059	6.05
248.438	6.13
248.817	6.07
249.195	6.09
249.574	6.16
249.953	6.21
250.332	6.15
250.71	6.11
251.089	6.03
251.468	6.09
251.846	6.05
252.225	5.93
252.603	5.9
252.982	5.95
253.36	5.91
253.738	5.89
254.117	5.88
254.495	5.9
254.873	5.94
255.251	6.03
255.63	6.11
256.008	6.12
256.386	6.19
256.764	6.18
257.142	6.19
257.52	6.24
257.898	6.31
258.276	6.32
258.653	6.35
259.031	6.34
259.409	6.31
259.787	6.23
260.164	6.25
260.542	6.27
260.92	6.26
261.297	6.24
261.675	6.27
262.052	6.17
262.43	6.15
262.807	6.17
263.184	6.15
263.562	6.15
263.939	6.16
264.316	6.16
264.693	6.16
265.07	6.22
265.448	6.23
265.825	6.19
266.202	6.16
266.579	6.17
266.956	6.17
267.333	6.15
267.709	6.18
268.086	6.19
268.463	6.22
268.84	6.25
269.216	6.19
269.593	6.14
269.97	6.17
270.346	6.18
270.723	6.09
271.099	6.06
271.476	6.05
271.852	5.99
272.229	5.97
272.605	5.93
272.981	5.93
273.358	5.99
273.734	6.08
274.11	6.03
274.486	6.07
274.862	6.13
275.238	6.13
275.614	6.19
275.99	6.19
276.366	6.17
276.742	6.15
277.118	6.11
277.494	6.06
277.87	6.07
278.245	6.11
278.621	6.05
278.997	5.99
279.372	5.98
279.748	5.92
280.123	5.92
280.499	5.95
280.874	5.91
281.25	5.89
281.625	5.85
282	5.74
282.376	5.66
282.751	5.71
283.126	5.68
283.501	5.66
283.876	5.65
284.252	5.6
284.627	5.61
285.002	5.65
285.377	5.64
285.751	5.64
286.126	5.64
286.501	5.68
286.876	5.62
287.251	5.6
287.625	5.61
288	5.59
288.375	5.64
288.749	5.59
289.124	5.54
289.498	5.52
289.873	5.52
290.247	5.52
290.622	5.47
290.996	5.48
291.37	5.48
291.745	5.45
292.119	5.39
292.493	5.34
292.867	5.3
293.241	5.24
293.616	5.17
293.99	5.15
294.364	5.14
294.737	5.16
295.111	5.16
295.485	5.17
295.859	5.16
296.233	5.2
296.607	5.22
296.98	5.24
297.354	5.24
297.728	5.23
298.101	5.18
298.475	5.11
298.848	5.02
299.222	4.95
299.595	4.94
299.968	4.83
300.342	4.76
300.715	4.74
301.088	4.68
301.462	4.65
301.835	4.65
302.208	4.61
302.581	4.65
302.954	4.67
303.327	4.65
303.7	4.52
304.073	4.55
304.446	4.54
304.819	4.41
305.192	4.36
305.564	4.33
305.937	4.25
306.31	4.2
306.682	4.15
307.055	4.08
307.428	4.04
307.8	4.1
308.173	4.03
308.545	3.99
308.917	3.97
309.29	3.93
309.662	3.89
310.034	3.9
310.407	3.89
310.779	3.87
311.151	3.84
311.523	3.84
311.895	3.78
312.267	3.78
312.639	3.68
313.011	3.74
313.383	3.72
313.755	3.72
314.127	3.68
314.498	3.65
314.87	3.56
315.242	3.52
315.614	3.5
315.985	3.49
316.357	3.43
316.728	3.48
317.1	3.36
317.471	3.34
317.843	3.26
318.214	3.21
318.585	3.24
318.957	3.21
319.328	3.12
319.699	3.03
320.07	2.98
320.441	2.99
320.813	3.02
321.184	3.05
321.555	3.04
321.926	3.07
322.297	3.09
322.667	3.03
323.038	3.08
323.409	3.12
323.78	3.15
324.151	3.09
324.521	3.08
324.892	3.01
325.262	2.99
325.633	3.02
326.004	3
326.374	2.96
326.744	2.95
327.115	2.88
327.485	2.86
327.855	2.84
328.226	2.84
328.596	2.89
328.966	2.92
329.336	2.88
329.706	2.81
330.076	2.78
330.447	2.78
330.816	2.78
331.186	2.85
331.556	2.88
331.926	2.93
332.296	2.99
332.666	2.93
333.036	2.91
333.405	2.9
333.775	2.89
334.144	2.89
334.514	2.86
334.884	2.82
335.253	2.74
335.623	2.74
335.992	2.7
336.361	2.6
336.731	2.58
337.1	2.56
337.469	2.61
337.838	2.67
338.208	2.74
338.577	2.77
338.946	2.8
339.315	2.82
339.684	2.82
340.053	2.87
340.422	2.93
340.79	2.99
341.159	3.03
341.528	3.01
341.897	2.99
342.266	2.94
342.634	2.91
343.003	2.92
343.371	2.88
343.74	2.87
344.108	2.87
344.477	2.91
344.845	2.85
345.214	2.79
345.582	2.8
345.95	2.82
346.319	2.8
346.687	2.8
347.055	2.74
347.423	2.75
347.791	2.75
348.159	2.71
348.527	2.63
348.895	2.68
349.263	2.7
349.631	2.67
349.999	2.59
350.367	2.57
350.734	2.61
351.102	2.64
351.47	2.63
351.837	2.59
352.205	2.57
352.573	2.62
352.94	2.56
353.308	2.55
353.675	2.54
354.042	2.51
354.41	2.55
354.777	2.49
355.144	2.42
355.511	2.51
355.879	2.57
356.246	2.55
356.613	2.5
356.98	2.48
357.347	2.54
357.714	2.5
358.081	2.53
358.448	2.48
358.815	2.49
359.181	2.54
359.548	2.49
359.915	2.45
360.282	2.46
360.648	2.51
361.015	2.48
361.381	2.45
361.748	2.48
362.114	2.43
362.481	2.52
362.847	2.56
363.214	2.51
363.58	2.48
363.946	2.45
364.312	2.49
364.678	2.44
365.045	2.43
365.411	2.4
365.777	2.39
366.143	2.41
366.509	2.34
366.875	2.29
367.241	2.32
367.606	2.33
367.972	2.33
368.338	2.28
368.704	2.28
369.069	2.3
369.435	2.25
369.801	2.21
370.166	2.22
370.532	2.24
370.897	2.19
371.263	2.14
371.628	2.11
371.993	2.14
372.359	2.18
372.724	2.18
373.089	2.23
373.454	2.31
373.82	2.37
374.185	2.37
374.55	2.3
374.915	2.28
375.28	2.35
375.645	2.33
376.01	2.3
376.374	2.22
376.739	2.22
377.104	2.2
377.469	2.17
377.833	2.15
378.198	2.17
378.563	2.22
378.927	2.27
379.292	2.33
379.656	2.37
380.021	2.41
380.385	2.48
380.749	2.48
381.114	2.46
381.478	2.47
381.842	2.48
382.206	2.48
382.571	2.46
382.935	2.48
383.299	2.41
383.663	2.39
384.027	2.36
384.391	2.32
384.755	2.39
385.118	2.35
385.482	2.37
385.846	2.36
386.21	2.39
386.573	2.45
386.937	2.46
387.301	2.48
387.664	2.48
388.028	2.47
388.391	2.46
388.755	2.42
389.118	2.43
389.481	2.41
389.845	2.38
390.208	2.32
390.571	2.24
390.934	2.19
391.298	2.17
391.661	2.18
392.024	2.2
392.387	2.19
392.75	2.18
393.113	2.16
393.476	2.17
393.838	2.2
394.201	2.25
394.564	2.27
394.927	2.35
395.289	2.36
395.652	2.35
396.015	2.34
396.377	2.37
396.74	2.37
397.102	2.38
397.465	2.38
397.827	2.35
398.189	2.29
398.552	2.27
398.914	2.24
399.276	2.26
399.638	2.28
400	2.28
400.363	2.31
400.725	2.3
401.087	2.33
401.449	2.33
401.81	2.36
402.172	2.43
402.534	2.46
402.896	2.49
403.258	2.48
403.619	2.45
403.981	2.47
404.343	2.45
404.704	2.44
405.066	2.43
405.427	2.42
405.789	2.39
406.15	2.38
406.512	2.41
406.873	2.38
407.234	2.39
407.596	2.35
407.957	2.35
408.318	2.4
408.679	2.43
409.04	2.42
409.401	2.43
409.762	2.43
410.123	2.42
410.484	2.38
410.845	2.39
411.206	2.36
411.567	2.41
411.927	2.41
412.288	2.35
412.649	2.23
413.009	2.21
413.37	2.22
413.731	2.23
414.091	2.26
414.452	2.27
414.812	2.27
415.172	2.28
415.533	2.3
415.893	2.35
416.253	2.34
416.613	2.47
416.974	2.52
417.334	2.52
417.694	2.5
418.054	2.47
418.414	2.45
418.774	2.43
419.134	2.46
419.494	2.4
419.853	2.38
420.213	2.44
420.573	2.43
420.933	2.42
421.292	2.42
421.652	2.48
422.011	2.48
422.371	2.56
422.73	2.61
423.09	2.62
423.449	2.68
423.809	2.67
424.168	2.65
424.527	2.66
424.887	2.67
425.246	2.67
425.605	2.66
425.964	2.68
426.323	2.63
426.682	2.63
427.041	2.6
427.4	2.59
427.759	2.57
428.118	2.55
428.477	2.54
428.835	2.54
429.194	2.57
429.553	2.57
429.911	2.55
430.27	2.55
430.629	2.54
430.987	2.58
431.346	2.6
431.704	2.65
432.062	2.64
432.421	2.65
432.779	2.68
433.137	2.7
433.496	2.74
433.854	2.74
434.212	2.75
434.57	2.8
434.928	2.78
435.286	2.8
435.644	2.78
436.002	2.78
436.36	2.83
436.718	2.81
437.075	2.83
437.433	2.82
437.791	2.85
438.149	2.89
438.506	2.89
438.864	2.88
439.221	2.85
439.579	2.85
439.936	2.86
440.294	2.88
440.651	2.92
441.009	2.9
441.366	2.88
441.723	2.86
442.08	2.83
442.437	2.84
442.795	2.85
443.152	2.88
443.509	2.87
443.866	2.92
444.223	2.91
444.58	2.9
444.936	2.95
445.293	2.97
445.65	3.05
446.007	3.09
446.363	3.08
446.72	3.11
447.077	3.11
447.433	3.15
447.79	3.14
448.146	3.15
448.503	3.16
448.859	3.13
449.215	3.15
449.572	3.1
449.928	3.08
450.284	3.08
450.641	3.09
450.997	3.14
451.353	3.18
451.709	3.19
452.065	3.23
452.421	3.24
452.777	3.24
453.133	3.3
453.488	3.3
453.844	3.35
454.2	3.38
454.556	3.44
454.911	3.47
455.267	3.46
455.623	3.5
455.978	3.46
456.334	3.51
456.689	3.53
457.045	3.55
457.4	3.59
457.755	3.61
458.111	3.65
458.466	3.64
458.821	3.66
459.176	3.7
459.531	3.7
459.886	3.76
460.242	3.79
460.597	3.8
460.951	3.76
461.306	3.81
461.661	3.81
462.016	3.81
462.371	3.82
462.726	3.84
463.08	3.87
463.435	3.93
463.79	3.93
464.144	3.95
464.499	4.01
464.853	4.07
465.208	4.08
465.562	4.1
465.916	4.09
466.271	4.14
466.625	4.17
466.979	4.16
467.333	4.13
467.688	4.23
468.042	4.2
468.396	4.22
468.75	4.24
469.104	4.25
469.458	4.25
469.811	4.29
470.165	4.3
470.519	4.3
470.873	4.3
471.227	4.38
471.58	4.31
471.934	4.35
472.287	4.32
472.641	4.34
472.995	4.36
473.348	4.41
473.701	4.48
474.055	4.48
474.408	4.53
474.761	4.61
475.115	4.55
475.468	4.56
475.821	4.57
476.174	4.61
476.527	4.64
476.88	4.67
477.233	4.69
477.586	4.65
477.939	4.67
478.292	4.63
478.645	4.63
478.998	4.67
479.35	4.7
479.703	4.75
480.056	4.78
480.408	4.82
480.761	4.85
481.113	4.86
481.466	4.94
481.818	4.99
482.171	5.01
482.523	5.05
482.875	5.06
483.228	5.1
483.58	5.11
483.932	5.13
484.284	5.15
484.636	5.15
484.988	5.24
485.34	5.25
485.692	5.27
486.044	5.32
486.396	5.34
486.748	5.4
487.1	5.43
487.451	5.44
487.803	5.49
488.155	5.5
488.506	5.53
488.858	5.53
489.209	5.55
489.561	5.56
489.912	5.6
490.264	5.61
490.615	5.64
490.966	5.66
491.318	5.71
491.669	5.71
492.02	5.74
492.371	5.82
492.722	5.86
493.073	5.95
493.424	6.04
493.775	6.09
494.126	6.13
494.477	6.15
494.828	6.24
495.179	6.28
495.53	6.34
495.88	6.42
496.231	6.45
496.582	6.48
496.932	6.51
497.283	6.54
497.633	6.59
497.984	6.67
498.334	6.73
498.684	6.76
499.035	6.81
499.385	6.88
499.735	6.89
500.086	6.92
500.436	6.97
500.786	6.99
501.136	7.05
501.486	7.09
501.836	7.1
502.186	7.2
502.536	7.26
502.886	7.31
503.235	7.41
503.585	7.48
503.935	7.57
504.285	7.66
504.634	7.74
504.984	7.82
505.333	7.9
505.683	8.05
506.032	8.1
506.382	8.17
506.731	8.22
507.08	8.26
507.43	8.31
507.779	8.39
508.128	8.48
508.477	8.55
508.826	8.63
509.176	8.7
509.525	8.74
509.874	8.81
510.222	8.91
510.571	8.99
510.92	9.08
511.269	9.16
511.618	9.19
511.967	9.24
512.315	9.32
512.664	9.37
513.012	9.45
513.361	9.53
513.71	9.63
514.058	9.69
514.406	9.77
514.755	9.84
515.103	9.98
515.451	10.14
515.8	10.29
516.148	10.42
516.496	10.5
516.844	10.62
517.192	10.75
517.54	10.85
517.888	10.98
518.236	11.11
518.584	11.21
518.932	11.26
519.28	11.32
519.628	11.38
519.975	11.45
520.323	11.57
520.671	11.64
521.018	11.71
521.366	11.81
521.713	11.9
522.061	12.01
522.408	12.16
522.756	12.24
523.103	12.41
523.45	12.49
523.798	12.64
524.145	12.78
524.492	12.9
524.839	12.98
525.186	13.11
525.533	13.22
525.88	13.36
526.227	13.51
526.574	13.65
526.921	13.76
527.268	13.95
527.615	14.03
527.961	14.16
528.308	14.3
528.655	14.45
529.001	14.55
529.348	14.72
529.694	14.85
530.041	14.94
530.387	15.06
530.734	15.14
531.08	15.26
531.426	15.42
531.773	15.54
532.119	15.7
532.465	15.85
532.811	16.06
533.157	16.17
533.503	16.28
533.849	16.42
534.195	16.64
534.541	16.78
534.887	16.9
535.233	17.01
535.579	17.23
535.924	17.4
536.27	17.57
536.616	17.61
536.961	17.74
537.307	17.83
537.652	17.99
537.998	18.09
538.343	18.25
538.689	18.4
539.034	18.55
539.379	18.62
539.725	18.67
540.07	18.77
540.415	18.97
540.76	19.11
541.105	19.27
541.45	19.4
541.795	19.53
542.14	19.66
542.485	19.77
542.83	19.91
543.175	20.04
543.519	20.22
543.864	20.41
544.209	20.54
544.554	20.68
544.898	20.87
545.243	20.97
545.587	21.06
545.932	21.22
546.276	21.37
546.621	21.54
546.965	21.74
547.309	21.89
547.653	21.99
547.998	22.11
548.342	22.25
548.686	22.36
549.03	22.53
549.374	22.75
549.718	22.86
550.062	23
550.406	23.09
550.75	23.18
551.094	23.32
551.437	23.43
551.781	23.6
552.125	23.74
552.468	23.84
552.812	24
553.156	24.09
553.499	24.25
553.843	24.4
554.186	24.57
554.529	24.66
554.873	24.76
555.216	24.89
555.559	25
555.902	25.15
556.246	25.32
556.589	25.41
556.932	25.51
557.275	25.64
557.618	25.77
557.961	25.88
558.304	26.04
558.646	26.16
558.989	26.29
559.332	26.38
559.675	26.45
560.017	26.57
560.36	26.69
560.703	26.82
561.045	26.89
561.388	26.95
561.73	27.06
562.073	27.13
562.415	27.28
562.757	27.39
563.1	27.47
563.442	27.66
563.784	27.76
564.126	27.88
564.468	27.99
564.81	28.08
565.152	28.21
565.494	28.34
565.836	28.44
566.178	28.54
566.52	28.64
566.862	28.82
567.204	28.9
567.545	28.94
567.887	29.09
568.229	29.26
568.57	29.35
568.912	29.47
569.253	29.52
569.595	29.6
569.936	29.66
570.277	29.77
570.619	29.82
570.96	29.85
571.301	29.94
571.642	29.94
571.984	29.93
572.325	30
572.666	30.06
573.007	30.11
573.348	30.17
573.689	30.23
574.03	30.3
574.37	30.34
574.711	30.38
575.052	30.47
575.393	30.56
575.733	30.63
576.074	30.7
576.414	30.75
576.755	30.85
577.095	30.96
577.436	31.01
577.776	31.08
578.117	31.16
578.457	31.27
578.797	31.31
579.137	31.4
579.478	31.5
579.818	31.57
580.158	31.64
580.498	31.72
580.838	31.8
581.178	31.87
581.518	31.92
581.858	32.05
582.197	32.09
582.537	32.17
582.877	32.24
583.217	32.29
583.556	32.38
583.896	32.49
584.235	32.57
584.575	32.66
584.914	32.76
585.254	32.85
585.593	32.89
585.933	33.05
586.272	33.13
586.611	33.22
586.95	33.34
587.289	33.41
587.629	33.45
587.968	33.51
588.307	33.57
588.646	33.67
588.985	33.77
589.323	33.86
589.662	33.93
590.001	34.03
590.34	34.1
590.679	34.19
591.017	34.34
591.356	34.46
591.695	34.58
592.033	34.71
592.372	34.8
592.71	34.92
593.048	35.04
593.387	35.1
593.725	35.2
594.063	35.28
594.402	35.36
594.74	35.4
595.078	35.46
595.416	35.53
595.754	35.55
596.092	35.63
596.43	35.7
596.768	35.77
597.106	35.82
597.444	35.92
597.781	36
598.119	36.09
598.457	36.16
598.795	36.24
599.132	36.32
599.47	36.43
599.807	36.48
600.145	36.56
600.482	36.64
600.82	36.76
601.157	36.79
601.494	36.87
601.831	36.92
602.169	37
602.506	37.04
602.843	37.12
603.18	37.14
603.517	37.22
603.854	37.28
604.191	37.34
604.528	37.36
604.865	37.44
605.202	37.51
605.538	37.56
605.875	37.62
606.212	37.71
606.548	37.79
606.885	37.87
607.222	37.96
607.558	38.03
607.895	38.12
608.231	38.21
608.567	38.31
608.904	38.38
609.24	38.46
609.576	38.54
609.912	38.6
610.248	38.69
610.585	38.81
610.921	38.89
611.257	39.05
611.593	39.15
611.929	39.24
612.264	39.3
612.6	39.37
612.936	39.44
613.272	39.51
613.608	39.62
613.943	39.65
614.279	39.71
614.614	39.79
614.95	39.74
615.285	39.75
615.621	39.83
615.956	39.91
616.292	39.98
616.627	40.06
616.962	40.15
617.297	40.16
617.632	40.29
617.968	40.34
618.303	40.34
618.638	40.44
618.973	40.52
619.308	40.58
619.643	40.65
619.977	40.73
620.312	40.84
620.647	40.91
620.982	40.99
621.316	41.03
621.651	41.14
621.986	41.33
622.32	41.41
622.655	41.43
622.989	41.54
623.324	41.58
623.658	41.64
623.992	41.71
624.326	41.79
624.661	41.96
624.995	42.05
625.329	42.1
625.663	42.11
625.997	42.21
626.331	42.34
626.665	42.36
626.999	42.47
627.333	42.5
627.667	42.58
628.001	42.68
628.334	42.69
628.668	42.71
629.002	42.82
629.335	42.84
629.669	42.89
630.002	42.91
630.336	43.01
630.669	43.06
631.003	43.18
631.336	43.25
631.669	43.27
632.003	43.3
632.336	43.44
632.669	43.42
633.002	43.58
633.335	43.63
633.668	43.76
634.001	43.81
634.334	43.93
634.667	43.97
635	44.05
635.333	44.2
635.665	44.28
635.998	44.31
636.331	44.43
636.663	44.5
636.996	44.61
637.328	44.7
637.661	44.77
637.993	44.77
638.326	44.82
638.658	44.88
638.99	44.88
639.323	44.97
639.655	45
639.987	45.12
640.319	45.19
640.651	45.25
640.983	45.34
641.315	45.41
641.647	45.51
641.979	45.59
642.311	45.62
642.643	45.71
642.975	45.75
643.306	45.83
643.638	45.85
643.97	45.87
644.301	45.93
644.633	45.99
644.964	46.1
645.296	46.14
645.627	46.3
645.959	46.31
646.29	46.33
646.621	46.41
646.952	46.5
647.284	46.57
647.615	46.62
647.946	46.72
648.277	46.75
648.608	46.78
648.939	46.84
649.27	46.84
649.601	47.02
649.931	47.09
650.262	47.08
650.593	47.15
650.924	47.15
651.254	47.16
651.585	47.17
651.915	47.27
652.246	47.34
652.576	47.4
652.907	47.44
653.237	47.4
653.568	47.47
653.898	47.57
654.228	47.64
654.558	47.81
654.888	47.86
655.219	47.79
655.549	47.32
655.879	46.67
656.209	46.26
656.539	45.86
656.868	45.57
657.198	45.39
657.528	45.26
657.858	45.18
658.188	45.13
658.517	45.14
658.847	45.18
659.176	45.26
659.506	45.46
659.835	45.6
660.165	45.8
660.494	45.96
660.824	46.12
661.153	46.31
661.482	46.5
661.811	46.69
662.14	46.87
662.47	47.05
662.799	47.26
663.128	47.4
663.457	47.55
663.786	47.69
664.114	47.88
664.443	48.05
664.772	48.19
665.101	48.24
665.43	48.3
665.758	48.47
666.087	48.64
666.415	48.88
666.744	49.02
667.072	49.16
667.401	49.31
667.729	49.45
668.058	49.52
668.386	49.5
668.714	49.64
669.042	49.81
669.371	49.88
669.699	49.99
670.027	50.06
670.355	50.11
670.683	50.09
671.011	50.06
671.339	50.11
671.666	50.18
671.994	50.32
672.322	50.32
672.65	50.35
672.977	50.4
673.305	50.32
673.633	50.29
673.96	50.4
674.288	50.5
674.615	50.49
674.943	50.43
675.27	50.5
675.597	50.51
675.924	50.61
676.252	50.53
676.579	50.59
676.906	50.69
677.233	50.75
677.56	50.68
677.887	50.7
678.214	50.72
678.541	50.83
678.868	50.81
679.195	50.81
679.521	50.8
679.848	50.86
680.175	50.85
680.501	50.78
680.828	50.8
681.154	50.91
681.481	50.88
681.807	50.91
682.134	50.86
682.46	50.89
682.787	50.9
683.113	50.92
683.439	50.97
683.765	50.86
684.091	51
684.417	50.96
684.743	50.87
685.069	50.94
685.395	51.01
685.721	51.03
686.047	51.05
686.373	51.09
686.699	51.17
687.024	51.2
687.35	51.34
687.676	51.38
688.001	51.44
688.327	51.51
688.652	51.63
688.978	51.54
689.303	51.62
689.629	51.63
689.954	51.61
690.279	51.56
690.604	51.66
690.93	51.68
691.255	51.72
691.58	51.74
691.905	51.78
692.23	51.78
692.555	51.96
692.88	52.04
693.204	52.06
693.529	52.09
693.854	52.14
694.179	52.08
694.503	52.04
694.828	51.99
695.153	51.99
695.477	52.13
695.802	52.11
696.126	52.08
696.451	52.01
696.775	52.03
697.099	51.98
697.423	52.01
697.748	51.99
698.072	52.08
698.396	52.1
698.72	52.16
699.044	52.09
699.368	52.09
699.692	52.13
700.016	52.13
700.34	52.18
700.664	52.32
700.987	52.35
701.311	52.44
701.635	52.48
701.958	52.59
702.282	52.61
702.606	52.8
702.929	52.77
703.252	52.82
703.576	52.92
703.899	53.12
704.223	53.18
704.546	53.21
704.869	53.21
705.192	53.3
705.515	53.24
705.838	53.27
706.161	53.15
706.484	53.14
706.807	53.06
707.13	53.09
707.453	53.02
707.776	52.98
708.099	52.92
708.421	52.98
708.744	52.87
709.067	52.84
709.389	52.91
709.712	52.75
710.034	52.85
710.357	52.88
710.679	52.86
711.001	52.81
711.324	52.75
711.646	52.79
711.968	52.74
712.29	52.79
712.612	52.93
712.935	52.9
713.257	53.03
713.579	53.01
713.9	53.06
714.222	53.09
714.544	53.1
714.866	53.11
715.188	53.18
715.509	53.26
715.831	53.3
716.153	53.13
716.474	53.13
716.796	53.11
717.117	53.23
717.439	53.22
717.76	53.25
718.081	53.42
718.403	53.52
718.724	53.51
719.045	53.48
719.366	53.58
719.687	53.78
720.009	53.84
720.33	53.99
720.651	53.96
720.971	54.02
721.292	53.98
721.613	53.92
721.934	53.86
722.255	53.94
722.575	54.01
722.896	53.94
723.217	53.79
723.537	53.72
723.858	53.74
724.178	53.75
724.499	53.72
724.819	53.85
725.139	53.72
725.46	53.77
725.78	53.65
726.1	53.69
726.42	53.51
726.74	53.74
727.06	53.74
727.38	53.63
727.7	53.55
728.02	53.67
728.34	53.69
728.66	53.77
728.98	53.89
729.299	53.94
729.619	53.92
729.939	54.13
730.258	54.04
730.578	54.12
730.897	54.11
731.217	54.2
731.536	54.15
731.856	54.15
732.175	54.13
732.494	53.94
732.814	53.97
733.133	54
733.452	53.91
733.771	53.96
734.09	53.92
734.409	54.07
734.728	54.12
735.047	54.21
735.366	54.21
735.684	54.21
736.003	54.33
736.322	54.41
736.641	54.41
736.959	54.49
737.278	54.55
737.596	54.67
737.915	54.66
738.233	54.62
738.552	54.56
738.87	54.53
739.188	54.6
739.507	54.64
739.825	54.59
740.143	54.62
740.461	54.54
740.779	54.51
741.097	54.5
741.415	54.44
741.733	54.7
742.051	54.67
742.369	54.7
742.687	54.75
743.004	54.7
743.322	54.74
743.64	54.64
743.957	54.79
744.275	54.74
744.593	54.79
744.91	54.79
745.227	54.49
745.545	54.58
745.862	54.55
746.179	54.57
746.497	54.75
746.814	54.72
747.131	54.86
747.448	54.88
747.765	54.97
748.082	54.88
748.399	54.98
748.716	55.1
749.033	55.08
749.35	55.29
749.667	55.3
749.983	55.22
750.3	55.21
750.617	55.15
750.933	55.21
751.25	55.19
751.566	55.22
751.883	55.3
752.199	55.32
752.516	55.34
752.832	55.25
753.148	55.34
753.464	55.23
753.781	55.33
754.097	55.25
754.413	55.21
754.729	55.15
755.045	55.06
755.361	54.98
755.677	54.93
755.992	54.96
756.308	54.97
756.624	54.81
756.94	54.86
757.255	54.7
757.571	54.82
757.887	54.89
758.202	55.1
758.518	55.32
758.833	55.44
759.148	55.37
759.464	55.26
759.779	55.38
760.094	55.43
760.41	55.4
760.725	55.55
761.04	55.5
761.355	55.4
761.67	55.16
761.985	55.03
762.3	54.9
762.615	54.96
762.93	54.93
763.244	54.82
763.559	54.83
763.874	54.9
764.188	54.91
764.503	55
764.818	55.07
765.132	55.19
765.447	55.13
765.761	55.11
766.075	55.18
766.39	55.19
766.704	55.17
767.018	55.25
767.332	55.19
767.646	55.31
767.961	55.33
768.275	55.27
768.589	55.24
768.903	55.39
769.216	55.4
769.53	55.48
769.844	55.65
770.158	55.76
770.472	55.69
770.785	55.57
771.099	55.49
771.413	55.5
771.726	55.5
772.04	55.5
772.353	55.52
772.666	55.46
772.98	55.31
773.293	55.35
773.606	55.24
773.919	55.18
774.233	55.31
774.546	55.29
774.859	55.33
775.172	55.45
775.485	55.51
775.798	55.46
776.111	55.8
776.423	55.98
776.736	55.97
777.049	56.01
777.362	56.09
777.674	56.22
777.987	56.29
778.299	56.24
778.612	56.14
778.924	56.17
779.237	56.29
779.549	56.32
779.862	56.42
780.174	56.34
780.486	56.44
780.798	56.49
781.11	56.7
781.422	56.69
781.735	56.83
782.046	56.8
782.358	56.78
782.67	56.91
782.982	56.86
783.294	56.7
783.606	56.88
783.917	56.9
784.229	57
784.541	56.72
784.852	56.86
785.164	56.83
785.475	56.95
785.787	57.08
786.098	57
786.41	56.93
786.721	56.84
787.032	56.77
787.343	56.77
787.654	56.95
787.966	57.05
788.277	56.85
788.588	56.74
788.899	56.82
789.209	56.74
789.52	56.46
789.831	56.47
790.142	56.69
790.453	56.55
790.763	56.35
791.074	56.11
791.385	56.21
791.695	56.18
792.006	56.2
792.316	56.05
792.626	56.05
792.937	56.27
793.247	56.28
793.557	56.09
793.868	56.21
794.178	56.3
794.488	56.31
794.798	56.38
795.108	56.5
795.418	56.64
795.728	56.62
796.038	56.79
796.348	56.8
796.657	56.64
796.967	56.64
797.277	56.55
797.587	56.83
797.896	56.79
798.206	56.82
798.515	56.74
798.825	56.74
799.134	57.03
799.444	56.9
799.753	56.98
800.062	57.26
800.371	57.44
800.681	57.47
800.99	57.28
801.299	57.41
801.608	57.26
801.917	57.31
802.226	57.16
802.535	57.02
802.844	56.94
803.152	56.9
803.461	56.63
803.77	56.52
804.078	56.7
804.387	56.79
804.696	56.94
805.004	56.97
805.313	57.19
805.621	57.3
805.93	57.32
806.238	57.4
806.546	57.64
806.854	57.81
807.163	57.87
807.471	57.91
807.779	57.62
808.087	57.32
808.395	57.17
808.703	57.07
809.011	57
809.319	57.01
809.626	57.02
809.934	56.76
810.242	56.61
810.55	56.72
810.857	56.44
811.165	56.73
811.472	57.02
811.78	57.36
812.087	57.28
812.395	57.45
812.702	57.52
813.009	57.38
813.317	57.35
813.624	57.57
813.931	57.57
814.238	57.9
814.545	57.77
814.852	57.52
815.159	57.54
815.466	57.79
815.773	57.65
816.08	57.21
816.387	57.23
816.693	57.07
817	57.1
817.307	56.85
817.613	56.94
817.92	57.3
818.226	57.86
818.533	57.75
818.839	57.48
819.146	57.46
819.452	57.82
819.758	58.14
820.064	58.2
820.371	58.07
820.677	58.49
820.983	58.13
821.289	57.85
821.595	57.6
821.901	57.47
822.207	58.06
822.512	58.06
822.818	58.31
823.124	57.79
823.43	57.84
823.735	57.95
824.041	57.54
824.347	58.23
824.652	58.37
824.957	58.14
825.263	58.09
825.568	57.55
825.874	57.38
826.179	57.01
826.484	57.08
826.789	57.45
827.094	57.64
827.399	57.97
827.705	57.59
828.01	57.25
828.314	57.18
828.619	57.32
828.924	57.64
829.229	57.92
829.534	57.48
829.838	57.72
830.143	57.58
830.448	57.18
830.752	56.92
831.057	56.68
831.361	56.67
831.666	56.76
831.97	56.7
832.274	56.9
832.579	56.69
832.883	57.44
833.187	56.97
833.491	56.85
833.795	57.12
834.099	57.6
834.403	57.64
834.707	57.59
835.011	57.36
835.315	57.59
835.619	56.89
835.923	57.45
836.226	57.34
836.53	58.3
836.834	58.26
837.137	57.99
837.441	57.27
837.744	57.22
838.048	57.76
838.351	58.12
838.654	57.91
838.958	58.3
839.261	57.6
839.564	57.77
839.867	57.31
840.17	57.85
840.473	58
840.776	58.48
841.079	58.68
841.382	58.47
841.685	58.23
841.988	57.97
842.291	57.81
842.593	58.03
842.896	57.91
843.199	58.21
843.501	58
843.804	57.88
844.106	57.67
844.409	57.97
844.711	58.14
845.013	58.34
845.316	58.74
845.618	58.61
845.92	59.05
846.222	59.16
846.524	58.92
846.826	58.42
847.128	58.47
847.43	58.13
847.732	57.31
848.034	56.76
848.336	56.46
848.638	55.77
848.939	55.24
849.241	55.25
849.543	55.25
849.844	55.44
850.146	55.36
850.447	55.37
850.749	55.51
851.05	55.67
851.351	56.05
851.653	55.57
851.954	56.13
852.255	56.46
852.556	56.04
852.857	55.39
853.158	54.87
853.459	55.25
853.76	55.18
854.061	55.41
854.362	55.79
854.663	55.7
854.964	56.01
855.264	56.08
855.565	56.38
855.866	56.19
856.166	55.99
856.467	56.22
856.767	56.46
857.068	56.66
857.368	56.94
857.668	56.51
857.969	56.73
858.269	56.82
858.569	56.43
858.869	56.65
859.169	57.14
859.469	57.28
859.769	56.91
860.069	56.88
860.369	57.05
860.669	57.15
860.969	57.49
861.269	57.75
861.568	57.71
861.868	58.33
862.168	58.02
862.467	57.94
862.767	58.07
863.066	58.53
863.366	57.76
863.665	57.37
863.964	57.16
864.264	57.35
864.563	56.21
864.862	56.42
865.161	56.22
865.46	56.04
865.759	55.99
866.058	55.41
866.357	55.3
866.656	55.94
866.955	56.44
867.254	56.13
867.552	55.51
867.851	55.85
868.15	54.97
868.448	55.14
868.747	55.84
869.045	55.36
869.344	56.28
869.642	56.64
869.941	55.38
870.239	54.94
870.537	55.03
870.836	55.53
871.134	55.41
871.432	55.96
871.73	55.03
872.028	53.68
872.326	54.55
872.624	55.35
872.922	54.43
873.22	56.01
873.517	55.62
873.815	55.15
874.113	54.95
874.411	54.81
874.708	55.44
875.006	57.14
875.303	58.38
875.601	57.72
875.898	56.85
876.195	57.96
876.493	56.76
876.79	56.47
877.087	56.95
877.384	57.37
877.682	57.42
877.979	55.88
878.276	54.69
878.573	53.79
878.87	53.71
879.166	53.38
879.463	52.3
