Data from troilus_ven_HW_orange_right_8_Reflection__0__249.txt Node

Date: Mon Dec 12 16:32:42 EST 2022
User: abbyrobinson
Spectrometer: USB2G8287
Scans to average: 10
Trigger mode: 4
Integration Time (sec): 1.000000E-1
Electric dark correction enabled: true
Boxcar width: 5
XAxis mode: Wavelengths
Number of Pixels in Spectrum: 2048
>>>>>Begin Spectral Data<<<<<
177.272	81.77
177.658	79.94
178.044	80.29
178.43	85.16
178.816	73.46
179.203	61.78
179.589	130.93
179.975	117.68
180.361	127.88
180.747	102.65
181.133	99.55
181.519	86.78
181.904	79.94
182.29	79.02
182.676	73.88
183.062	71.57
183.447	59.08
183.833	58.79
184.219	56.96
184.604	59.68
184.99	74.27
185.375	108.84
185.761	155.03
186.146	478.05
186.531	3003.9
186.917	-961.13
187.302	-183.62
187.687	-131.91
188.073	-90.81
188.458	-79.35
188.843	-71.42
189.228	-72.99
189.613	-103.64
189.998	-86.63
190.383	-93.83
190.768	-92.35
191.153	-67.02
191.538	-56.44
191.923	-29.61
192.307	-32.05
192.692	-35.2
193.077	-38.18
193.461	-33.78
193.846	-22.18
194.231	-24.8
194.615	-23.19
195	-16.48
195.384	-35.6
195.769	-38.07
196.153	-51.58
196.537	-50.56
196.922	-60.88
197.306	-48.86
197.69	-46.58
198.074	-56.66
198.458	-61.32
198.843	-53.32
199.227	-70.12
199.611	-64.02
199.995	-60.04
200.379	-73.67
200.763	-65.87
201.146	-49.5
201.53	-57.38
201.914	-56.27
202.298	-46.29
202.681	-34.24
203.065	-35.02
203.449	-20.64
203.832	-6.66
204.216	-20.99
204.599	55.81
204.983	53.06
205.366	48.53
205.75	48.96
206.133	47.69
206.516	46.86
206.9	45.8
207.283	43.6
207.666	45.23
208.049	40.4
208.432	43.65
208.815	-50.33
209.198	-87.66
209.581	-80.72
209.964	-57.11
210.347	-63.26
210.73	-55.25
211.113	-53.15
211.496	-39.58
211.879	-41.65
212.261	-48.22
212.644	-52.45
213.027	-52.39
213.409	-40.08
213.792	-49.63
214.174	-45.82
214.557	-26.07
214.939	-43.23
215.322	-40.08
215.704	-50.88
216.086	-48.19
216.469	-40
216.851	-47.19
217.233	-55.94
217.615	-56.21
217.997	-46.48
218.379	-53.98
218.761	-49.86
219.143	-24.16
219.525	-27.35
219.907	-24.2
220.289	-19.47
220.671	-25.18
221.053	-23.47
221.435	-22.29
221.816	-27.82
222.198	-30.44
222.58	-34.86
222.961	-45.6
223.343	-64.94
223.724	-62.13
224.106	-71.88
224.487	-86.27
224.869	-87.87
225.25	-103.45
225.631	-111.35
226.013	-79.29
226.394	-72.66
226.775	-65.29
227.156	-66.01
227.537	-59.87
227.919	-64.51
228.3	-51.86
228.681	-47.95
229.062	-45.02
229.442	-42.01
229.823	-34.13
230.204	-40.48
230.585	-42.27
230.966	-39.67
231.347	-39.46
231.727	-35.1
232.108	-29.22
232.488	-26.55
232.869	-26.46
233.25	-24.03
233.63	-20.39
234.01	-19.55
234.391	-17.36
234.771	-13.89
235.152	-10.9
235.532	-9.22
235.912	-6.82
236.292	-5.47
236.672	-4.8
237.053	-3.02
237.433	-2.21
237.813	-1.01
238.193	-0.31
238.573	0.88
238.953	1.73
239.333	0.92
239.712	1.71
240.092	1.76
240.472	1.96
240.852	2.24
241.231	2.51
241.611	2.74
241.991	3.26
242.37	3.55
242.75	3.76
243.129	3.68
243.509	4.64
243.888	4.97
244.267	5.31
244.647	5.46
245.026	5.61
245.405	5.69
245.784	5.91
246.164	5.62
246.543	5.8
246.922	5.62
247.301	5.85
247.68	5.66
248.059	5.69
248.438	5.63
248.817	5.59
249.195	5.69
249.574	5.83
249.953	5.64
250.332	5.77
250.71	5.9
251.089	6.07
251.468	6.13
251.846	6.1
252.225	6.06
252.603	6.04
252.982	6.17
253.36	6.02
253.738	6.08
254.117	6.21
254.495	6.21
254.873	6.11
255.251	6.07
255.63	6.08
256.008	6.05
256.386	6.05
256.764	6.07
257.142	6.08
257.52	6
257.898	5.86
258.276	5.79
258.653	5.71
259.031	5.68
259.409	5.64
259.787	5.63
260.164	5.76
260.542	5.72
260.92	5.75
261.297	5.69
261.675	5.73
262.052	5.74
262.43	5.75
262.807	5.8
263.184	5.71
263.562	5.75
263.939	5.67
264.316	5.53
264.693	5.47
265.07	5.45
265.448	5.42
265.825	5.43
266.202	5.39
266.579	5.37
266.956	5.39
267.333	5.38
267.709	5.35
268.086	5.24
268.463	5.14
268.84	5.14
269.216	5.04
269.593	4.91
269.97	4.91
270.346	4.89
270.723	4.93
271.099	4.8
271.476	4.82
271.852	4.79
272.229	4.8
272.605	4.92
272.981	4.87
273.358	4.93
273.734	4.92
274.11	4.8
274.486	4.84
274.862	4.84
275.238	4.86
275.614	4.82
275.99	4.73
276.366	4.76
276.742	4.62
277.118	4.62
277.494	4.52
277.87	4.66
278.245	4.78
278.621	4.72
278.997	4.61
279.372	4.64
279.748	4.58
280.123	4.56
280.499	4.48
280.874	4.54
281.25	4.49
281.625	4.46
282	4.3
282.376	4.17
282.751	4.07
283.126	4.17
283.501	4.07
283.876	4.01
284.252	4.06
284.627	4.06
285.002	3.95
285.377	4.01
285.751	4.03
286.126	4.06
286.501	4.06
286.876	4.05
287.251	3.96
287.625	4.03
288	4
288.375	3.89
288.749	3.79
289.124	3.8
289.498	3.72
289.873	3.6
290.247	3.52
290.622	3.43
290.996	3.42
291.37	3.31
291.745	3.14
292.119	3.12
292.493	3.17
292.867	3.22
293.241	3.21
293.616	3.19
293.99	3.29
294.364	3.24
294.737	3.17
295.111	3.09
295.485	3.05
295.859	3.06
296.233	3.11
296.607	2.99
296.98	3.05
297.354	3.06
297.728	3.02
298.101	2.81
298.475	2.78
298.848	2.8
299.222	2.83
299.595	2.77
299.968	2.75
300.342	2.71
300.715	2.68
301.088	2.55
301.462	2.47
301.835	2.38
302.208	2.37
302.581	2.37
302.954	2.36
303.327	2.37
303.7	2.45
304.073	2.45
304.446	2.44
304.819	2.53
305.192	2.49
305.564	2.5
305.937	2.56
306.31	2.65
306.682	2.69
307.055	2.63
307.428	2.55
307.8	2.43
308.173	2.38
308.545	2.3
308.917	2.19
309.29	2.14
309.662	2
310.034	2.14
310.407	2.06
310.779	1.9
311.151	2.01
311.523	2.05
311.895	2.14
312.267	2.13
312.639	2.18
313.011	2.22
313.383	2.3
313.755	2.37
314.127	2.13
314.498	2.08
314.87	2.12
315.242	2.07
315.614	2.03
315.985	1.97
316.357	1.99
316.728	1.97
317.1	1.9
317.471	1.83
317.843	1.86
318.214	1.85
318.585	1.92
318.957	1.9
319.328	1.97
319.699	1.94
320.07	1.97
320.441	2.04
320.813	2.04
321.184	2.08
321.555	2.13
321.926	2.07
322.297	2.17
322.667	2.15
323.038	2.23
323.409	2.28
323.78	2.29
324.151	2.27
324.521	2.18
324.892	2.2
325.262	2.21
325.633	2.11
326.004	2.17
326.374	2.23
326.744	2.21
327.115	2.17
327.485	2.02
327.855	1.99
328.226	1.95
328.596	1.94
328.966	1.91
329.336	1.87
329.706	1.95
330.076	1.83
330.447	1.76
330.816	1.79
331.186	1.83
331.556	1.84
331.926	1.94
332.296	2.03
332.666	2.06
333.036	1.95
333.405	2.03
333.775	1.92
334.144	1.95
334.514	1.89
334.884	1.75
335.253	1.66
335.623	1.65
335.992	1.61
336.361	1.65
336.731	1.62
337.1	1.72
337.469	1.7
337.838	1.71
338.208	1.75
338.577	1.71
338.946	1.81
339.315	1.92
339.684	1.89
340.053	1.9
340.422	1.8
340.79	1.74
341.159	1.65
341.528	1.63
341.897	1.6
342.266	1.57
342.634	1.69
343.003	1.75
343.371	1.6
343.74	1.56
344.108	1.48
344.477	1.42
344.845	1.46
345.214	1.47
345.582	1.43
345.95	1.44
346.319	1.4
346.687	1.35
347.055	1.4
347.423	1.46
347.791	1.42
348.159	1.41
348.527	1.48
348.895	1.45
349.263	1.53
349.631	1.55
349.999	1.53
350.367	1.49
350.734	1.4
351.102	1.29
351.47	1.21
351.837	1.23
352.205	1.31
352.573	1.2
352.94	1.27
353.308	1.23
353.675	1.24
354.042	1.33
354.41	1.38
354.777	1.36
355.144	1.33
355.511	1.43
355.879	1.39
356.246	1.33
356.613	1.41
356.98	1.36
357.347	1.33
357.714	1.32
358.081	1.31
358.448	1.33
358.815	1.43
359.181	1.48
359.548	1.48
359.915	1.52
360.282	1.55
360.648	1.53
361.015	1.58
361.381	1.67
361.748	1.7
362.114	1.7
362.481	1.71
362.847	1.69
363.214	1.7
363.58	1.63
363.946	1.69
364.312	1.65
364.678	1.66
365.045	1.7
365.411	1.67
365.777	1.6
366.143	1.64
366.509	1.65
366.875	1.67
367.241	1.7
367.606	1.79
367.972	1.72
368.338	1.7
368.704	1.73
369.069	1.73
369.435	1.69
369.801	1.71
370.166	1.65
370.532	1.71
370.897	1.71
371.263	1.66
371.628	1.7
371.993	1.7
372.359	1.77
372.724	1.7
373.089	1.62
373.454	1.61
373.82	1.57
374.185	1.52
374.55	1.46
374.915	1.45
375.28	1.42
375.645	1.32
376.01	1.37
376.374	1.36
376.739	1.37
377.104	1.44
377.469	1.53
377.833	1.55
378.198	1.64
378.563	1.69
378.927	1.7
379.292	1.78
379.656	1.79
380.021	1.67
380.385	1.65
380.749	1.68
381.114	1.65
381.478	1.6
381.842	1.61
382.206	1.55
382.571	1.45
382.935	1.36
383.299	1.29
383.663	1.33
384.027	1.45
384.391	1.41
384.755	1.42
385.118	1.37
385.482	1.41
385.846	1.46
386.21	1.4
386.573	1.43
386.937	1.46
387.301	1.51
387.664	1.47
388.028	1.53
388.391	1.58
388.755	1.52
389.118	1.45
389.481	1.38
389.845	1.36
390.208	1.48
390.571	1.48
390.934	1.58
391.298	1.52
391.661	1.51
392.024	1.47
392.387	1.47
392.75	1.52
393.113	1.65
393.476	1.67
393.838	1.66
394.201	1.62
394.564	1.67
394.927	1.6
395.289	1.62
395.652	1.64
396.015	1.62
396.377	1.64
396.74	1.72
397.102	1.78
397.465	1.78
397.827	1.77
398.189	1.76
398.552	1.74
398.914	1.7
399.276	1.73
399.638	1.79
400	1.76
400.363	1.75
400.725	1.65
401.087	1.55
401.449	1.55
401.81	1.53
402.172	1.61
402.534	1.6
402.896	1.66
403.258	1.67
403.619	1.65
403.981	1.75
404.343	1.72
404.704	1.72
405.066	1.73
405.427	1.76
405.789	1.83
406.15	1.81
406.512	1.74
406.873	1.73
407.234	1.66
407.596	1.62
407.957	1.53
408.318	1.54
408.679	1.53
409.04	1.64
409.401	1.66
409.762	1.57
410.123	1.52
410.484	1.59
410.845	1.62
411.206	1.67
411.567	1.7
411.927	1.72
412.288	1.7
412.649	2.23
413.009	2.25
413.37	2.24
413.731	2.29
414.091	2.28
414.452	2.28
414.812	2.29
415.172	2.27
415.533	2.28
415.893	2.33
416.253	2.34
416.613	1.83
416.974	1.8
417.334	1.76
417.694	1.71
418.054	1.71
418.414	1.7
418.774	1.65
419.134	1.7
419.494	1.68
419.853	1.67
420.213	1.67
420.573	1.7
420.933	1.65
421.292	1.7
421.652	1.69
422.011	1.77
422.371	1.79
422.73	1.85
423.09	1.82
423.449	1.78
423.809	1.78
424.168	1.77
424.527	1.75
424.887	1.72
425.246	1.71
425.605	1.75
425.964	1.71
426.323	1.72
426.682	1.63
427.041	1.66
427.4	1.69
427.759	1.67
428.118	1.73
428.477	1.77
428.835	1.79
429.194	1.81
429.553	1.84
429.911	1.82
430.27	1.8
430.629	1.86
430.987	1.85
431.346	1.82
431.704	1.82
432.062	1.8
432.421	1.81
432.779	1.84
433.137	1.85
433.496	1.81
433.854	1.88
434.212	1.86
434.57	1.92
434.928	1.93
435.286	1.96
435.644	2
436.002	2.02
436.36	2.04
436.718	2
437.075	1.99
437.433	2.03
437.791	1.98
438.149	1.98
438.506	1.93
438.864	1.97
439.221	2.01
439.579	2.06
439.936	2.04
440.294	2.05
440.651	2.09
441.009	2.06
441.366	2.02
441.723	2.06
442.08	2.15
442.437	2.15
442.795	2.15
443.152	2.13
443.509	2.07
443.866	2.06
444.223	2.09
444.58	2.1
444.936	2.18
445.293	2.25
445.65	2.29
446.007	2.29
446.363	2.36
446.72	2.38
447.077	2.41
447.433	2.43
447.79	2.48
448.146	2.48
448.503	2.51
448.859	2.51
449.215	2.55
449.572	2.61
449.928	2.59
450.284	2.56
450.641	2.57
450.997	2.61
451.353	2.6
451.709	2.61
452.065	2.64
452.421	2.64
452.777	2.67
453.133	2.66
453.488	2.59
453.844	2.64
454.2	2.66
454.556	2.69
454.911	2.69
455.267	2.77
455.623	2.75
455.978	2.76
456.334	2.83
456.689	2.85
457.045	2.85
457.4	2.91
457.755	2.88
458.111	2.91
458.466	2.89
458.821	2.92
459.176	2.92
459.531	3.01
459.886	2.99
460.242	2.94
460.597	2.89
460.951	2.89
461.306	2.93
461.661	2.99
462.016	3.02
462.371	3.06
462.726	3.06
463.08	3.14
463.435	3.1
463.79	3.12
464.144	3.13
464.499	3.16
464.853	3.18
465.208	3.2
465.562	3.27
465.916	3.22
466.271	3.19
466.625	3.24
466.979	3.28
467.333	3.29
467.688	3.32
468.042	3.4
468.396	3.45
468.75	3.45
469.104	3.48
469.458	3.44
469.811	3.51
470.165	3.66
470.519	3.72
470.873	3.65
471.227	3.74
471.58	3.76
471.934	3.7
472.287	3.73
472.641	3.75
472.995	3.68
473.348	3.66
473.701	3.71
474.055	3.63
474.408	3.61
474.761	3.64
475.115	3.63
475.468	3.59
475.821	3.68
476.174	3.7
476.527	3.77
476.88	3.8
477.233	3.87
477.586	3.86
477.939	3.89
478.292	3.89
478.645	3.9
478.998	3.89
479.35	3.96
479.703	3.94
480.056	4.01
480.408	4.01
480.761	4.05
481.113	4.09
481.466	4.09
481.818	4.1
482.171	4.12
482.523	4.15
482.875	4.21
483.228	4.29
483.58	4.33
483.932	4.38
484.284	4.45
484.636	4.47
484.988	4.48
485.34	4.59
485.692	4.64
486.044	4.68
486.396	4.71
486.748	4.75
487.1	4.75
487.451	4.8
487.803	4.77
488.155	4.75
488.506	4.77
488.858	4.77
489.209	4.71
489.561	4.75
489.912	4.81
490.264	4.87
490.615	4.91
490.966	4.95
491.318	4.96
491.669	4.96
492.02	5.01
492.371	5.05
492.722	5.1
493.073	5.18
493.424	5.22
493.775	5.19
494.126	5.18
494.477	5.19
494.828	5.19
495.179	5.23
495.53	5.29
495.88	5.32
496.231	5.33
496.582	5.39
496.932	5.42
497.283	5.46
497.633	5.5
497.984	5.57
498.334	5.57
498.684	5.6
499.035	5.65
499.385	5.67
499.735	5.73
500.086	5.8
500.436	5.83
500.786	5.87
501.136	5.91
501.486	5.99
501.836	6.01
502.186	6.07
502.536	6.06
502.886	6.1
503.235	6.18
503.585	6.23
503.935	6.24
504.285	6.27
504.634	6.33
504.984	6.34
505.333	6.37
505.683	6.46
506.032	6.53
506.382	6.6
506.731	6.57
507.08	6.63
507.43	6.65
507.779	6.69
508.128	6.75
508.477	6.83
508.826	6.89
509.176	6.97
509.525	7.01
509.874	7.04
510.222	7.14
510.571	7.31
510.92	7.36
511.269	7.47
511.618	7.59
511.967	7.66
512.315	7.74
512.664	7.78
513.012	7.78
513.361	7.81
513.71	7.88
514.058	7.95
514.406	7.94
514.755	7.96
515.103	8
515.451	8.02
515.8	8.08
516.148	8.08
516.496	8.18
516.844	8.27
517.192	8.31
517.54	8.34
517.888	8.44
518.236	8.57
518.584	8.67
518.932	8.74
519.28	8.82
519.628	8.88
519.975	8.95
520.323	9.07
520.671	9.13
521.018	9.25
521.366	9.37
521.713	9.41
522.061	9.46
522.408	9.54
522.756	9.63
523.103	9.71
523.45	9.81
523.798	9.9
524.145	9.92
524.492	10
524.839	10.08
525.186	10.24
525.533	10.31
525.88	10.38
526.227	10.47
526.574	10.63
526.921	10.69
527.268	10.74
527.615	10.81
527.961	10.94
528.308	11.02
528.655	11.09
529.001	11.14
529.348	11.22
529.694	11.35
530.041	11.43
530.387	11.46
530.734	11.61
531.08	11.73
531.426	11.82
531.773	11.94
532.119	12.05
532.465	12.1
532.811	12.11
533.157	12.2
533.503	12.28
533.849	12.38
534.195	12.47
534.541	12.52
534.887	12.6
535.233	12.72
535.579	12.79
535.924	12.85
536.27	12.94
536.616	13.04
536.961	13.15
537.307	13.24
537.652	13.37
537.998	13.44
538.343	13.58
538.689	13.67
539.034	13.77
539.379	13.85
539.725	14.01
540.07	14.14
540.415	14.28
540.76	14.37
541.105	14.43
541.45	14.54
541.795	14.65
542.14	14.76
542.485	14.88
542.83	14.95
543.175	15.02
543.519	15.05
543.864	15.16
544.209	15.21
544.554	15.31
544.898	15.41
545.243	15.44
545.587	15.5
545.932	15.53
546.276	15.6
546.621	15.65
546.965	15.74
547.309	15.83
547.653	15.95
547.998	16.1
548.342	16.19
548.686	16.32
549.03	16.41
549.374	16.5
549.718	16.61
550.062	16.71
550.406	16.82
550.75	16.9
551.094	17.02
551.437	17.07
551.781	17.11
552.125	17.22
552.468	17.27
552.812	17.37
553.156	17.5
553.499	17.62
553.843	17.68
554.186	17.77
554.529	17.85
554.873	17.97
555.216	18.04
555.559	18.12
555.902	18.17
556.246	18.32
556.589	18.41
556.932	18.5
557.275	18.58
557.618	18.66
557.961	18.86
558.304	18.96
558.646	19
558.989	19.13
559.332	19.24
559.675	19.3
560.017	19.4
560.36	19.45
560.703	19.53
561.045	19.61
561.388	19.65
561.73	19.74
562.073	19.85
562.415	20.05
562.757	20.09
563.1	20.18
563.442	20.25
563.784	20.28
564.126	20.47
564.468	20.51
564.81	20.56
565.152	20.67
565.494	20.69
565.836	20.79
566.178	20.8
566.52	20.89
566.862	21.01
567.204	21.12
567.545	21.22
567.887	21.24
568.229	21.33
568.57	21.43
568.912	21.51
569.253	21.57
569.595	21.57
569.936	21.66
570.277	21.79
570.619	21.89
570.96	21.94
571.301	21.99
571.642	22.05
571.984	22.13
572.325	22.2
572.666	22.3
573.007	22.38
573.348	22.49
573.689	22.55
574.03	22.58
574.37	22.59
574.711	22.66
575.052	22.75
575.393	22.83
575.733	22.9
576.074	22.97
576.414	22.96
576.755	23.03
577.095	23.07
577.436	23.13
577.776	23.17
578.117	23.22
578.457	23.28
578.797	23.33
579.137	23.41
579.478	23.5
579.818	23.56
580.158	23.66
580.498	23.73
580.838	23.77
581.178	23.8
581.518	23.87
581.858	23.98
582.197	24.06
582.537	24.14
582.877	24.19
583.217	24.24
583.556	24.28
583.896	24.34
584.235	24.4
584.575	24.5
584.914	24.58
585.254	24.66
585.593	24.7
585.933	24.77
586.272	24.83
586.611	24.89
586.95	24.98
587.289	25.1
587.629	25.2
587.968	25.29
588.307	25.39
588.646	25.55
588.985	25.67
589.323	25.8
589.662	25.93
590.001	26.02
590.34	26.13
590.679	26.21
591.017	26.3
591.356	26.41
591.695	26.53
592.033	26.68
592.372	26.74
592.71	26.81
593.048	26.9
593.387	27
593.725	27.08
594.063	27.18
594.402	27.27
594.74	27.38
595.078	27.52
595.416	27.62
595.754	27.66
596.092	27.71
596.43	27.81
596.768	27.91
597.106	28
597.444	28.12
597.781	28.19
598.119	28.29
598.457	28.34
598.795	28.39
599.132	28.44
599.47	28.54
599.807	28.64
600.145	28.75
600.482	28.88
600.82	28.94
601.157	29.02
601.494	29.12
601.831	29.24
602.169	29.34
602.506	29.43
602.843	29.5
603.18	29.63
603.517	29.73
603.854	29.8
604.191	29.84
604.528	29.94
604.865	30.06
605.202	30.12
605.538	30.17
605.875	30.26
606.212	30.33
606.548	30.4
606.885	30.48
607.222	30.58
607.558	30.68
607.895	30.78
608.231	30.85
608.567	30.9
608.904	31
609.24	31.11
609.576	31.19
609.912	31.31
610.248	31.46
610.585	31.59
610.921	31.69
611.257	31.77
611.593	31.85
611.929	31.98
612.264	32.03
612.6	32.16
612.936	32.3
613.272	32.35
613.608	32.42
613.943	32.5
614.279	32.52
614.614	32.58
614.95	32.69
615.285	32.76
615.621	32.85
615.956	32.93
616.292	33.09
616.627	33.14
616.962	33.26
617.297	33.36
617.632	33.48
617.968	33.58
618.303	33.7
618.638	33.8
618.973	33.94
619.308	34.1
619.643	34.29
619.977	34.37
620.312	34.49
620.647	34.64
620.982	34.81
621.316	34.94
621.651	35.06
621.986	35.2
622.32	35.3
622.655	35.38
622.989	35.41
623.324	35.49
623.658	35.51
623.992	35.56
624.326	35.65
624.661	35.74
624.995	35.81
625.329	35.92
625.663	36.02
625.997	36.08
626.331	36.23
626.665	36.38
626.999	36.48
627.333	36.66
627.667	36.8
628.001	36.92
628.334	37.06
628.668	37.21
629.002	37.25
629.335	37.36
629.669	37.6
630.002	37.61
630.336	37.78
630.669	37.88
631.003	37.95
631.336	38.07
631.669	38.16
632.003	38.28
632.336	38.38
632.669	38.6
633.002	38.69
633.335	38.73
633.668	38.92
634.001	38.98
634.334	39.21
634.667	39.38
635	39.51
635.333	39.67
635.665	39.76
635.998	39.94
636.331	40.06
636.663	40.12
636.996	40.31
637.328	40.47
637.661	40.6
637.993	40.52
638.326	40.65
638.658	40.76
638.99	40.86
639.323	40.97
639.655	40.99
639.987	41.14
640.319	41.36
640.651	41.45
640.983	41.52
641.315	41.72
641.647	41.93
641.979	41.98
642.311	42.1
642.643	42.21
642.975	42.24
643.306	42.4
643.638	42.42
643.97	42.51
644.301	42.62
644.633	42.7
644.964	42.67
645.296	42.77
645.627	42.96
645.959	43.11
646.29	43.17
646.621	43.43
646.952	43.53
647.284	43.69
647.615	43.83
647.946	43.97
648.277	44.15
648.608	44.32
648.939	44.32
649.27	44.41
649.601	44.42
649.931	44.53
650.262	44.42
650.593	44.54
650.924	44.61
651.254	44.65
651.585	44.7
651.915	44.68
652.246	44.68
652.576	44.92
652.907	44.96
653.237	45.1
653.568	45.23
653.898	45.4
654.228	45.28
654.558	45.37
654.888	45.34
655.219	45.27
655.549	44.98
655.879	44.61
656.209	44.05
656.539	43.53
656.868	43.16
657.198	42.88
657.528	42.66
657.858	42.44
658.188	42.25
658.517	42.16
658.847	42.06
659.176	42
659.506	41.94
659.835	41.9
660.165	41.89
660.494	41.9
660.824	41.92
661.153	41.96
661.482	42.1
661.811	42.2
662.14	42.33
662.47	42.46
662.799	42.67
663.128	42.93
663.457	43.28
663.786	43.65
664.114	44.02
664.443	44.4
664.772	44.79
665.101	45.1
665.43	45.65
665.758	46.01
666.087	46.57
666.415	46.99
666.744	47.36
667.072	47.74
667.401	48.21
667.729	48.55
668.058	48.81
668.386	49.01
668.714	49.16
669.042	49.19
669.371	49.29
669.699	49.24
670.027	49.28
670.355	49.39
670.683	49.49
671.011	49.42
671.339	49.46
671.666	49.59
671.994	49.63
672.322	49.73
672.65	49.82
672.977	49.83
673.305	49.91
673.633	49.93
673.96	50.01
674.288	50
674.615	50.14
674.943	50.18
675.27	50.03
675.597	49.99
675.924	49.98
676.252	50.06
676.579	50.17
676.906	50.29
677.233	50.34
677.56	50.37
677.887	50.49
678.214	50.47
678.541	50.45
678.868	50.59
679.195	50.68
679.521	50.83
679.848	50.82
680.175	50.86
680.501	50.84
680.828	50.87
681.154	51.01
681.481	51.07
681.807	51.26
682.134	51.42
682.46	51.49
682.787	51.62
683.113	51.67
683.439	51.64
683.765	51.73
684.091	51.84
684.417	52.01
684.743	51.96
685.069	52.04
685.395	52.03
685.721	51.93
686.047	51.98
686.373	51.89
686.699	51.87
687.024	52.01
687.35	52.01
687.676	51.95
688.001	51.96
688.327	51.92
688.652	51.88
688.978	51.78
689.303	51.94
689.629	52.03
689.954	52.14
690.279	52.24
690.604	52.21
690.93	52.17
691.255	52.28
691.58	52.35
691.905	52.48
692.23	52.57
692.555	52.73
692.88	52.68
693.204	52.76
693.529	52.82
693.854	52.84
694.179	52.98
694.503	53.11
694.828	53.24
695.153	53.26
695.477	53.39
695.802	53.37
696.126	53.39
696.451	53.59
696.775	53.57
697.099	53.57
697.423	53.6
697.748	53.58
698.072	53.72
698.396	53.64
698.72	53.8
699.044	53.73
699.368	53.67
699.692	53.73
700.016	53.74
700.34	53.82
700.664	53.99
700.987	54.1
701.311	54.11
701.635	54.17
701.958	54.33
702.282	54.33
702.606	54.45
702.929	54.62
703.252	54.74
703.576	54.81
703.899	54.93
704.223	55.03
704.546	55.15
704.869	55.25
705.192	55.24
705.515	55.19
705.838	55.3
706.161	55.39
706.484	55.44
706.807	55.41
707.13	55.36
707.453	55.23
707.776	55.31
708.099	55.18
708.421	55.31
708.744	55.37
709.067	55.39
709.389	55.45
709.712	55.43
710.034	55.53
710.357	55.47
710.679	55.55
711.001	55.7
711.324	55.7
711.646	55.73
711.968	55.75
712.29	55.67
712.612	55.78
712.935	55.72
713.257	55.8
713.579	55.78
713.9	55.97
714.222	56.07
714.544	56.09
714.866	56.14
715.188	56.18
715.509	56.2
715.831	56.3
716.153	56.28
716.474	56.29
716.796	56.36
717.117	56.42
717.439	56.5
717.76	56.54
718.081	56.55
718.403	56.61
718.724	56.73
719.045	56.82
719.366	56.98
719.687	57.2
720.009	57.25
720.33	57.3
720.651	57.46
720.971	57.36
721.292	57.48
721.613	57.55
721.934	57.57
722.255	57.73
722.575	57.7
722.896	57.79
723.217	57.85
723.537	57.91
723.858	57.95
724.178	57.88
724.499	58.03
724.819	58.18
725.139	58.16
725.46	58.2
725.78	58.18
726.1	58.23
726.42	58.16
726.74	58.1
727.06	58.09
727.38	58.23
727.7	58.27
728.02	58.28
728.34	58.15
728.66	58.32
728.98	58.27
729.299	58.26
729.619	58.44
729.939	58.58
730.258	58.55
730.578	58.6
730.897	58.41
731.217	58.48
731.536	58.48
731.856	58.46
732.175	58.35
732.494	58.44
732.814	58.44
733.133	58.35
733.452	58.15
733.771	58.24
734.09	58.16
734.409	58.2
734.728	58.24
735.047	58.25
735.366	58.19
735.684	58.36
736.003	58.18
736.322	58.2
736.641	58.26
736.959	58.43
737.278	58.4
737.596	58.59
737.915	58.64
738.233	58.54
738.552	58.61
738.87	58.61
739.188	58.58
739.507	58.69
739.825	58.81
740.143	58.87
740.461	58.85
740.779	58.89
741.097	59.01
741.415	59.15
741.733	59.42
742.051	59.51
742.369	59.83
742.687	59.96
743.004	60.14
743.322	60.04
743.64	60.03
743.957	60.21
744.275	60.47
744.593	60.51
744.91	60.64
745.227	60.76
745.545	60.82
745.862	60.91
746.179	60.86
746.497	60.79
746.814	61.06
747.131	61.14
747.448	61.19
747.765	61.1
748.082	61.12
748.399	61.1
748.716	61.24
749.033	61.23
749.35	61.21
749.667	61.2
749.983	61.6
750.3	61.77
750.617	61.85
750.933	61.81
751.25	61.59
751.566	61.45
751.883	61.52
752.199	61.28
752.516	61.34
752.832	61.43
753.148	61.55
753.464	61.39
753.781	61.27
754.097	61.25
754.413	61.38
754.729	61.58
755.045	61.72
755.361	61.76
755.677	61.74
755.992	61.71
756.308	61.6
756.624	61.51
756.94	61.4
757.255	61.36
757.571	61.44
757.887	61.45
758.202	61.55
758.518	61.68
758.833	61.58
759.148	61.68
759.464	61.64
759.779	61.71
760.094	61.62
760.41	61.76
760.725	61.71
761.04	61.66
761.355	61.51
761.67	61.37
761.985	61.23
762.3	61.2
762.615	61.09
762.93	61.13
763.244	61.11
763.559	61.18
763.874	61.16
764.188	61.29
764.503	61.47
764.818	61.55
765.132	61.81
765.447	62.05
765.761	62.18
766.075	62.39
766.39	62.35
766.704	62.41
767.018	62.66
767.332	62.66
767.646	62.81
767.961	62.72
768.275	62.83
768.589	62.84
768.903	63.01
769.216	63.09
769.53	62.99
769.844	63.2
770.158	63.24
770.472	63.25
770.785	63.42
771.099	63.24
771.413	63.37
771.726	63.5
772.04	63.51
772.353	63.33
772.666	63.3
772.98	63.5
773.293	63.4
773.606	63.51
773.919	63.58
774.233	63.53
774.546	63.75
774.859	63.88
775.172	63.95
775.485	63.99
775.798	64.12
776.111	64.25
776.423	64.32
776.736	64.76
777.049	64.86
777.362	65.02
777.674	65.21
777.987	65.44
778.299	65.48
778.612	65.3
778.924	65.38
779.237	65.34
779.549	65.38
779.862	65.38
780.174	65.22
780.486	65.16
780.798	65
781.11	64.79
781.422	64.53
781.735	64.71
782.046	65.07
782.358	65.03
782.67	65.02
782.982	65.06
783.294	65
783.606	65.14
783.917	65.14
784.229	65.13
784.541	65.14
784.852	65.12
785.164	64.68
785.475	64.63
785.787	64.65
786.098	64.9
786.41	65
786.721	65.3
787.032	65.28
787.343	65.48
787.654	65.69
787.966	66.04
788.277	66.18
788.588	66.55
788.899	66.34
789.209	66.79
789.52	66.86
789.831	67
790.142	66.79
790.453	66.72
790.763	66.5
791.074	66.45
791.385	66.29
791.695	66.66
792.006	66.77
792.316	66.88
792.626	66.79
792.937	66.51
793.247	66.61
793.557	66.82
793.868	66.95
794.178	67.15
794.488	67.18
794.798	67.4
795.108	67.3
795.418	67.26
795.728	67.28
796.038	67.02
796.348	67.19
796.657	66.79
796.967	66.73
797.277	66.49
797.587	66.44
797.896	66.5
798.206	66.26
798.515	66.5
798.825	66.61
799.134	66.67
799.444	67.1
799.753	67.27
800.062	67.86
800.371	67.77
800.681	68.21
800.99	68.47
801.299	68.65
801.608	69.08
801.917	69.01
802.226	69.18
802.535	69.28
802.844	69.13
803.152	68.82
803.461	68.48
803.77	68.95
804.078	68.96
804.387	68.95
804.696	68.79
805.004	68.82
805.313	68.6
805.621	68.51
805.93	68.56
806.238	68.46
806.546	68.75
806.854	68.94
807.163	68.65
807.471	68.19
807.779	68.25
808.087	68.45
808.395	68.52
808.703	68.83
809.011	68.44
809.319	68.53
809.626	68.47
809.934	68.65
810.242	68.38
810.55	68.52
810.857	68.94
811.165	68.83
811.472	68.97
811.78	68.97
812.087	69
812.395	69.39
812.702	69.64
813.009	69.55
813.317	69.34
813.624	69.88
813.931	70.07
814.238	70.41
814.545	70.49
814.852	70.38
815.159	70.81
815.466	70.8
815.773	70.92
816.08	71.03
816.387	71.27
816.693	71.12
817	71.12
817.307	70.99
817.613	71.07
817.92	71.19
818.226	70.91
818.533	70.19
818.839	69.74
819.146	69.88
819.452	69.59
819.758	69.59
820.064	69.72
820.371	69.7
820.677	69.82
820.983	69.47
821.289	69.35
821.595	69.61
821.901	70.26
822.207	70.4
822.512	70.4
822.818	70.66
823.124	71.09
823.43	71.45
823.735	71.48
824.041	71.45
824.347	72.03
824.652	72.39
824.957	72.24
825.263	71.8
825.568	72.18
825.874	72.42
826.179	72.5
826.484	72.3
826.789	72.24
827.094	72.55
827.399	72.67
827.705	72.54
828.01	72.45
828.314	72.47
828.619	72.67
828.924	72.51
829.229	72.29
829.534	72.42
829.838	72.49
830.143	72.49
830.448	71.71
830.752	71.41
831.057	71.05
831.361	70.75
831.666	71.05
831.97	70.59
832.274	70.77
832.579	70.94
832.883	71.56
833.187	71.38
833.491	71.15
833.795	71.56
834.099	72.16
834.403	72.47
834.707	72.43
835.011	72.75
835.315	73.37
835.619	73.1
835.923	73.14
836.226	72.44
836.53	72.72
836.834	73.3
837.137	74.15
837.441	73.78
837.744	74.04
838.048	74.72
838.351	74.52
838.654	74.35
838.958	74.43
839.261	74.25
839.564	74.21
839.867	74.51
840.17	74.5
840.473	73.75
840.776	74.19
841.079	74.25
841.382	73.91
841.685	74.52
841.988	74.29
842.291	74.24
842.593	73.82
842.896	74.12
843.199	74.28
843.501	74.13
843.804	74.29
844.106	73.42
844.409	73.23
844.711	73.85
845.013	72.74
845.316	73.23
845.618	73.78
845.92	74.11
846.222	73.65
846.524	72.88
846.826	73.48
847.128	73.68
847.43	73.55
847.732	73.61
848.034	73.25
848.336	73.62
848.638	73.17
848.939	73.33
849.241	74.46
849.543	75.2
849.844	75.59
850.146	74.88
850.447	74.34
850.749	76.16
851.05	76.25
851.351	75.51
851.653	75.87
851.954	76.81
852.255	76.72
852.556	75.6
852.857	75.08
853.158	74.17
853.459	74.13
853.76	74.41
854.061	73.57
854.362	73.83
854.663	74.51
854.964	73.22
855.264	73.67
855.565	73.07
855.866	73.82
856.166	73.41
856.467	74.36
856.767	74.57
857.068	74.8
857.368	74.72
857.668	74.41
857.969	73.85
858.269	73.93
858.569	73.93
858.869	73.86
859.169	72.37
859.469	71.87
859.769	71.6
860.069	71.23
860.369	70.68
860.669	70.89
860.969	70.76
861.269	71.92
861.568	72.38
861.868	71.24
862.168	71.37
862.467	72.79
862.767	74.21
863.066	73.66
863.366	73.66
863.665	73.23
863.964	72.52
864.264	72.2
864.563	72.68
864.862	73.39
865.161	74.58
865.46	74.06
865.759	73.02
866.058	71.87
866.357	72.3
866.656	72.07
866.955	73.79
867.254	73.39
867.552	74.22
867.851	73.26
868.15	72.01
868.448	71.37
868.747	71.4
869.045	71.62
869.344	71.76
869.642	71.55
869.941	70.7
870.239	69.76
870.537	71.35
870.836	70.8
871.134	70.84
871.432	73.13
871.73	73.3
872.028	75.85
872.326	76.49
872.624	77.7
872.922	79.02
873.22	81.44
873.517	80.18
873.815	78.39
874.113	77.6
874.411	76.78
874.708	76.25
875.006	75.07
875.303	73.87
875.601	72.47
875.898	72.75
876.195	73.06
876.493	72.88
876.79	72.62
877.087	74.21
877.384	74.04
877.682	73.76
877.979	73.81
878.276	74.74
878.573	73.86
878.87	75.4
879.166	73.91
879.463	72.12
