Data from troilus_ven_HW_orange_left_8_Reflection__0__248.txt Node

Date: Mon Dec 12 16:32:09 EST 2022
User: abbyrobinson
Spectrometer: USB2G8287
Scans to average: 10
Trigger mode: 4
Integration Time (sec): 1.000000E-1
Electric dark correction enabled: true
Boxcar width: 5
XAxis mode: Wavelengths
Number of Pixels in Spectrum: 2048
>>>>>Begin Spectral Data<<<<<
177.272	83.48
177.658	78.5
178.044	75.57
178.43	71.02
178.816	64.12
179.203	63.64
179.589	144.6
179.975	117.21
180.361	121.79
180.747	106.56
181.133	99.1
181.519	82.26
181.904	78.5
182.29	76.29
182.676	68.3
183.062	68.91
183.447	71.76
183.833	59.73
184.219	64.09
184.604	62.17
184.99	70.8
185.375	112.89
185.761	155.34
186.146	407.23
186.531	2050.65
186.917	-568.68
187.302	-93.41
187.687	-35.75
188.073	-30.2
188.458	-38.45
188.843	-34.64
189.228	-32.74
189.613	-59.05
189.998	-54.53
190.383	-58.97
190.768	-61.81
191.153	-48.36
191.538	-44.74
191.923	-36.95
192.307	-40.11
192.692	-35.29
193.077	-39.65
193.461	-48.96
193.846	-31.93
194.231	-33.1
194.615	-40.75
195	-38.55
195.384	-54.53
195.769	-47.86
196.153	-47.67
196.537	-51.64
196.922	-60.47
197.306	-48.49
197.69	-47.19
198.074	-51.51
198.458	-58.76
198.843	-68.06
199.227	-75.72
199.611	-71.55
199.995	-72.12
200.379	-86.61
200.763	-83
201.146	-60.05
201.53	-73.37
201.914	-74.08
202.298	-65.35
202.681	-59.38
203.065	-43.71
203.449	-39.93
203.832	-35.98
204.216	-53.47
204.599	47.8
204.983	47.86
205.366	44.32
205.75	42.7
206.133	42.54
206.516	40.98
206.9	44.93
207.283	43.73
207.666	42.7
208.049	41.03
208.432	40.47
208.815	-78.84
209.198	-119.91
209.581	-129.99
209.964	-101.56
210.347	-99.51
210.73	-91.88
211.113	-94.71
211.496	-81.17
211.879	-79.07
212.261	-92.16
212.644	-82.15
213.027	-77.94
213.409	-71.28
213.792	-81.25
214.174	-68.92
214.557	-47.09
214.939	-55.73
215.322	-50.54
215.704	-57.15
216.086	-49.39
216.469	-42.85
216.851	-55.68
217.233	-62.31
217.615	-64.25
217.997	-56.72
218.379	-62.31
218.761	-65.08
219.143	-43
219.525	-53.22
219.907	-48.31
220.289	-42.71
220.671	-48.67
221.053	-47.16
221.435	-43.32
221.816	-44.96
222.198	-43.28
222.58	-46.39
222.961	-49.8
223.343	-67.1
223.724	-55.06
224.106	-72.31
224.487	-81.04
224.869	-77.04
225.25	-83.12
225.631	-84.47
226.013	-61.48
226.394	-61.18
226.775	-59.73
227.156	-62.08
227.537	-53.95
227.919	-60.07
228.3	-45.27
228.681	-47.57
229.062	-49.24
229.442	-46.3
229.823	-39.55
230.204	-40.18
230.585	-36.23
230.966	-33.66
231.347	-34.17
231.727	-34.17
232.108	-30.71
232.488	-27.03
232.869	-23.37
233.25	-20.04
233.63	-16.98
234.01	-17.96
234.391	-16.42
234.771	-13.18
235.152	-10.55
235.532	-10.14
235.912	-7.09
236.292	-5.67
236.672	-5.12
237.053	-3.76
237.433	-3.04
237.813	-2.46
238.193	-1.57
238.573	-1.28
238.953	-1.13
239.333	-1.22
239.712	0.39
240.092	0.58
240.472	1.69
240.852	2.05
241.231	2.25
241.611	2.66
241.991	3.19
242.37	3.68
242.75	3.96
243.129	4.21
243.509	4.71
243.888	4.73
244.267	4.91
244.647	4.77
245.026	4.68
245.405	4.7
245.784	4.73
246.164	4.45
246.543	4.4
246.922	4.33
247.301	4.38
247.68	4.47
248.059	4.66
248.438	4.7
248.817	4.61
249.195	4.74
249.574	4.77
249.953	4.85
250.332	5.01
250.71	5.24
251.089	5.43
251.468	5.56
251.846	5.33
252.225	5.19
252.603	5.1
252.982	5.25
253.36	5.18
253.738	5.37
254.117	5.31
254.495	5.25
254.873	5.11
255.251	5.04
255.63	5.08
256.008	5.18
256.386	5.3
256.764	5.39
257.142	5.37
257.52	5.41
257.898	5.31
258.276	5.37
258.653	5.51
259.031	5.5
259.409	5.58
259.787	5.56
260.164	5.55
260.542	5.49
260.92	5.44
261.297	5.47
261.675	5.44
262.052	5.4
262.43	5.4
262.807	5.37
263.184	5.23
263.562	5.2
263.939	5.12
264.316	5.09
264.693	4.98
265.07	4.9
265.448	4.85
265.825	4.82
266.202	4.8
266.579	4.82
266.956	4.86
267.333	4.97
267.709	4.95
268.086	4.81
268.463	4.75
268.84	4.79
269.216	4.85
269.593	4.79
269.97	4.81
270.346	4.87
270.723	4.78
271.099	4.69
271.476	4.69
271.852	4.64
272.229	4.77
272.605	4.86
272.981	4.82
273.358	4.83
273.734	4.8
274.11	4.83
274.486	4.9
274.862	5
275.238	4.97
275.614	4.95
275.99	4.9
276.366	4.88
276.742	4.8
277.118	4.8
277.494	4.75
277.87	4.83
278.245	4.92
278.621	4.71
278.997	4.59
279.372	4.62
279.748	4.62
280.123	4.62
280.499	4.6
280.874	4.68
281.25	4.76
281.625	4.67
282	4.59
282.376	4.48
282.751	4.48
283.126	4.53
283.501	4.37
283.876	4.34
284.252	4.35
284.627	4.33
285.002	4.23
285.377	4.12
285.751	4.2
286.126	4.19
286.501	4.14
286.876	4.13
287.251	4.06
287.625	4.16
288	4.09
288.375	4.12
288.749	4.06
289.124	4.13
289.498	4.14
289.873	4.07
290.247	4.1
290.622	4.05
290.996	4.09
291.37	4.09
291.745	4.03
292.119	4.05
292.493	3.97
292.867	4
293.241	3.93
293.616	4.01
293.99	4.01
294.364	3.95
294.737	3.94
295.111	3.84
295.485	3.79
295.859	3.75
296.233	3.73
296.607	3.69
296.98	3.75
297.354	3.7
297.728	3.65
298.101	3.66
298.475	3.62
298.848	3.56
299.222	3.64
299.595	3.56
299.968	3.62
300.342	3.62
300.715	3.68
301.088	3.58
301.462	3.57
301.835	3.41
302.208	3.28
302.581	3.3
302.954	3.32
303.327	3.32
303.7	3.31
304.073	3.28
304.446	3.18
304.819	3.16
305.192	3.19
305.564	3.21
305.937	3.23
306.31	3.3
306.682	3.26
307.055	3.24
307.428	3.09
307.8	3.03
308.173	2.96
308.545	2.99
308.917	2.86
309.29	2.77
309.662	2.68
310.034	2.78
310.407	2.76
310.779	2.72
311.151	2.72
311.523	2.74
311.895	2.75
312.267	2.77
312.639	2.77
313.011	2.83
313.383	2.83
313.755	2.78
314.127	2.57
314.498	2.5
314.87	2.39
315.242	2.33
315.614	2.32
315.985	2.27
316.357	2.24
316.728	2.33
317.1	2.26
317.471	2.23
317.843	2.25
318.214	2.21
318.585	2.22
318.957	2.3
319.328	2.37
319.699	2.31
320.07	2.39
320.441	2.41
320.813	2.33
321.184	2.35
321.555	2.31
321.926	2.31
322.297	2.44
322.667	2.43
323.038	2.37
323.409	2.38
323.78	2.37
324.151	2.41
324.521	2.34
324.892	2.29
325.262	2.34
325.633	2.36
326.004	2.32
326.374	2.4
326.744	2.33
327.115	2.34
327.485	2.24
327.855	2.31
328.226	2.2
328.596	2.28
328.966	2.4
329.336	2.28
329.706	2.33
330.076	2.29
330.447	2.28
330.816	2.34
331.186	2.41
331.556	2.47
331.926	2.51
332.296	2.55
332.666	2.53
333.036	2.36
333.405	2.36
333.775	2.23
334.144	2.3
334.514	2.21
334.884	2.09
335.253	1.96
335.623	1.9
335.992	1.83
336.361	1.87
336.731	1.79
337.1	1.84
337.469	1.94
337.838	1.95
338.208	1.98
338.577	2
338.946	2.11
339.315	2.27
339.684	2.33
340.053	2.36
340.422	2.32
340.79	2.22
341.159	2.16
341.528	2.1
341.897	2.13
342.266	2.02
342.634	1.95
343.003	2.01
343.371	1.85
343.74	1.77
344.108	1.69
344.477	1.69
344.845	1.83
345.214	1.88
345.582	1.89
345.95	1.85
346.319	1.91
346.687	1.94
347.055	1.96
347.423	2
347.791	1.95
348.159	2.01
348.527	2.01
348.895	1.94
349.263	2.01
349.631	1.93
349.999	1.94
350.367	1.96
350.734	1.87
351.102	1.77
351.47	1.85
351.837	1.91
352.205	1.91
352.573	1.88
352.94	1.96
353.308	1.87
353.675	1.96
354.042	1.97
354.41	1.94
354.777	1.98
355.144	1.97
355.511	1.91
355.879	1.86
356.246	1.83
356.613	1.85
356.98	1.77
357.347	1.8
357.714	1.73
358.081	1.71
358.448	1.64
358.815	1.59
359.181	1.7
359.548	1.77
359.915	1.78
360.282	1.84
360.648	1.8
361.015	1.76
361.381	1.83
361.748	1.9
362.114	1.91
362.481	2.02
362.847	2.07
363.214	1.95
363.58	1.81
363.946	1.84
364.312	1.77
364.678	1.82
365.045	1.97
365.411	1.86
365.777	1.82
366.143	1.87
366.509	1.81
366.875	1.76
367.241	1.78
367.606	1.81
367.972	1.79
368.338	1.76
368.704	1.69
369.069	1.6
369.435	1.61
369.801	1.66
370.166	1.65
370.532	1.72
370.897	1.8
371.263	1.75
371.628	1.76
371.993	1.71
372.359	1.71
372.724	1.71
373.089	1.69
373.454	1.71
373.82	1.69
374.185	1.7
374.55	1.65
374.915	1.65
375.28	1.66
375.645	1.66
376.01	1.8
376.374	1.82
376.739	1.78
377.104	1.78
377.469	1.81
377.833	1.77
378.198	1.75
378.563	1.82
378.927	1.7
379.292	1.78
379.656	1.83
380.021	1.66
380.385	1.74
380.749	1.84
381.114	1.82
381.478	1.75
381.842	1.77
382.206	1.77
382.571	1.7
382.935	1.68
383.299	1.58
383.663	1.57
384.027	1.66
384.391	1.59
384.755	1.55
385.118	1.55
385.482	1.6
385.846	1.59
386.21	1.56
386.573	1.57
386.937	1.64
387.301	1.65
387.664	1.63
388.028	1.67
388.391	1.7
388.755	1.64
389.118	1.55
389.481	1.5
389.845	1.52
390.208	1.55
390.571	1.52
390.934	1.5
391.298	1.55
391.661	1.56
392.024	1.51
392.387	1.5
392.75	1.56
393.113	1.63
393.476	1.68
393.838	1.69
394.201	1.62
394.564	1.65
394.927	1.62
395.289	1.61
395.652	1.57
396.015	1.63
396.377	1.68
396.74	1.72
397.102	1.81
397.465	1.74
397.827	1.77
398.189	1.8
398.552	1.82
398.914	1.8
399.276	1.87
399.638	1.91
400	1.89
400.363	1.85
400.725	1.83
401.087	1.71
401.449	1.73
401.81	1.74
402.172	1.87
402.534	1.86
402.896	1.98
403.258	1.92
403.619	1.95
403.981	1.94
404.343	1.93
404.704	1.93
405.066	1.99
405.427	2.01
405.789	2.04
406.15	1.93
406.512	1.86
406.873	1.84
407.234	1.84
407.596	1.82
407.957	1.78
408.318	1.79
408.679	1.8
409.04	1.88
409.401	1.88
409.762	1.76
410.123	1.75
410.484	1.83
410.845	1.79
411.206	1.79
411.567	1.81
411.927	1.85
412.288	1.82
412.649	2.14
413.009	2.11
413.37	2.15
413.731	2.18
414.091	2.18
414.452	2.15
414.812	2.15
415.172	2.16
415.533	2.13
415.893	2.11
416.253	2.14
416.613	1.77
416.974	1.77
417.334	1.74
417.694	1.79
418.054	1.77
418.414	1.77
418.774	1.78
419.134	1.74
419.494	1.76
419.853	1.8
420.213	1.81
420.573	1.82
420.933	1.78
421.292	1.76
421.652	1.72
422.011	1.8
422.371	1.82
422.73	1.9
423.09	1.95
423.449	1.88
423.809	1.86
424.168	1.88
424.527	1.93
424.887	1.98
425.246	2.01
425.605	2.04
425.964	1.97
426.323	1.98
426.682	1.88
427.041	1.93
427.4	1.99
427.759	1.98
428.118	1.99
428.477	1.97
428.835	1.99
429.194	2
429.553	1.98
429.911	2.02
430.27	1.99
430.629	2.08
430.987	2.06
431.346	2.02
431.704	2.06
432.062	2.05
432.421	2.08
432.779	2.09
433.137	2.1
433.496	2.11
433.854	2.13
434.212	2.16
434.57	2.17
434.928	2.19
435.286	2.25
435.644	2.26
436.002	2.21
436.36	2.15
436.718	2.04
437.075	2.07
437.433	2.06
437.791	2.04
438.149	2.05
438.506	1.97
438.864	1.92
439.221	1.89
439.579	1.88
439.936	1.92
440.294	1.98
440.651	2.04
441.009	2.05
441.366	2.1
441.723	2.13
442.08	2.16
442.437	2.15
442.795	2.2
443.152	2.21
443.509	2.18
443.866	2.15
444.223	2.17
444.58	2.23
444.936	2.25
445.293	2.25
445.65	2.26
446.007	2.27
446.363	2.34
446.72	2.37
447.077	2.39
447.433	2.45
447.79	2.53
448.146	2.55
448.503	2.52
448.859	2.49
449.215	2.57
449.572	2.6
449.928	2.6
450.284	2.68
450.641	2.67
450.997	2.72
451.353	2.7
451.709	2.7
452.065	2.71
452.421	2.72
452.777	2.75
453.133	2.71
453.488	2.65
453.844	2.7
454.2	2.65
454.556	2.63
454.911	2.66
455.267	2.71
455.623	2.72
455.978	2.68
456.334	2.75
456.689	2.77
457.045	2.73
457.4	2.83
457.755	2.75
458.111	2.76
458.466	2.74
458.821	2.7
459.176	2.66
459.531	2.73
459.886	2.73
460.242	2.7
460.597	2.7
460.951	2.75
461.306	2.74
461.661	2.82
462.016	2.87
462.371	2.94
462.726	2.97
463.08	3.04
463.435	2.96
463.79	2.97
464.144	2.96
464.499	2.96
464.853	2.93
465.208	2.96
465.562	3.01
465.916	3
466.271	2.97
466.625	2.99
466.979	2.99
467.333	3.09
467.688	3.11
468.042	3.21
468.396	3.27
468.75	3.32
469.104	3.36
469.458	3.32
469.811	3.34
470.165	3.4
470.519	3.46
470.873	3.47
471.227	3.42
471.58	3.52
471.934	3.47
472.287	3.37
472.641	3.38
472.995	3.3
473.348	3.28
473.701	3.29
474.055	3.3
474.408	3.25
474.761	3.26
475.115	3.33
475.468	3.31
475.821	3.41
476.174	3.55
476.527	3.67
476.88	3.73
477.233	3.76
477.586	3.78
477.939	3.85
478.292	3.89
478.645	3.93
478.998	3.93
479.35	3.97
479.703	3.91
480.056	3.86
480.408	3.78
480.761	3.78
481.113	3.84
481.466	3.9
481.818	3.88
482.171	3.93
482.523	3.95
482.875	4.04
483.228	4.07
483.58	4.12
483.932	4.17
484.284	4.25
484.636	4.3
484.988	4.31
485.34	4.36
485.692	4.42
486.044	4.45
486.396	4.48
486.748	4.46
487.1	4.5
487.451	4.54
487.803	4.55
488.155	4.58
488.506	4.6
488.858	4.62
489.209	4.61
489.561	4.64
489.912	4.67
490.264	4.7
490.615	4.75
490.966	4.77
491.318	4.79
491.669	4.82
492.02	4.84
492.371	4.87
492.722	4.91
493.073	4.91
493.424	4.95
493.775	4.94
494.126	4.98
494.477	5.01
494.828	5.01
495.179	5.04
495.53	5.09
495.88	5.13
496.231	5.16
496.582	5.24
496.932	5.31
497.283	5.35
497.633	5.39
497.984	5.42
498.334	5.43
498.684	5.5
499.035	5.5
499.385	5.53
499.735	5.56
500.086	5.6
500.436	5.59
500.786	5.61
501.136	5.61
501.486	5.65
501.836	5.71
502.186	5.77
502.536	5.82
502.886	5.82
503.235	5.88
503.585	5.92
503.935	5.92
504.285	6
504.634	6.08
504.984	6.13
505.333	6.2
505.683	6.3
506.032	6.34
506.382	6.33
506.731	6.43
507.08	6.5
507.43	6.53
507.779	6.63
508.128	6.68
508.477	6.68
508.826	6.76
509.176	6.8
509.525	6.84
509.874	6.85
510.222	6.97
510.571	7.08
510.92	7.17
511.269	7.21
511.618	7.26
511.967	7.29
512.315	7.43
512.664	7.45
513.012	7.48
513.361	7.47
513.71	7.52
514.058	7.6
514.406	7.62
514.755	7.66
515.103	7.72
515.451	7.84
515.8	7.9
516.148	7.94
516.496	8
516.844	8.11
517.192	8.19
517.54	8.28
517.888	8.31
518.236	8.4
518.584	8.45
518.932	8.57
519.28	8.54
519.628	8.63
519.975	8.67
520.323	8.78
520.671	8.82
521.018	8.86
521.366	8.92
521.713	9
522.061	9.03
522.408	9.11
522.756	9.18
523.103	9.28
523.45	9.37
523.798	9.46
524.145	9.5
524.492	9.58
524.839	9.75
525.186	9.86
525.533	9.96
525.88	10.01
526.227	10.1
526.574	10.21
526.921	10.32
527.268	10.43
527.615	10.52
527.961	10.58
528.308	10.63
528.655	10.67
529.001	10.73
529.348	10.8
529.694	10.9
530.041	10.97
530.387	11
530.734	11.08
531.08	11.13
531.426	11.21
531.773	11.36
532.119	11.57
532.465	11.65
532.811	11.74
533.157	11.8
533.503	11.9
533.849	11.95
534.195	12.07
534.541	12.12
534.887	12.17
535.233	12.24
535.579	12.32
535.924	12.35
536.27	12.42
536.616	12.51
536.961	12.65
537.307	12.78
537.652	12.9
537.998	12.89
538.343	13.04
538.689	13.17
539.034	13.28
539.379	13.33
539.725	13.41
540.07	13.51
540.415	13.61
540.76	13.69
541.105	13.78
541.45	13.91
541.795	14.04
542.14	14.11
542.485	14.21
542.83	14.29
543.175	14.42
543.519	14.47
543.864	14.59
544.209	14.65
544.554	14.73
544.898	14.77
545.243	14.84
545.587	14.96
545.932	15.08
546.276	15.14
546.621	15.23
546.965	15.3
547.309	15.44
547.653	15.54
547.998	15.65
548.342	15.75
548.686	15.89
549.03	16.03
549.374	16.09
549.718	16.2
550.062	16.31
550.406	16.41
550.75	16.51
551.094	16.6
551.437	16.66
551.781	16.76
552.125	16.83
552.468	16.97
552.812	17.03
553.156	17.18
553.499	17.25
553.843	17.37
554.186	17.46
554.529	17.55
554.873	17.63
555.216	17.7
555.559	17.87
555.902	17.98
556.246	18
556.589	18.02
556.932	18.13
557.275	18.2
557.618	18.29
557.961	18.44
558.304	18.51
558.646	18.63
558.989	18.75
559.332	18.8
559.675	18.91
560.017	19.02
560.36	19.16
560.703	19.19
561.045	19.29
561.388	19.32
561.73	19.38
562.073	19.52
562.415	19.62
562.757	19.74
563.1	19.82
563.442	19.86
563.784	19.99
564.126	20.07
564.468	20.23
564.81	20.34
565.152	20.48
565.494	20.53
565.836	20.6
566.178	20.63
566.52	20.65
566.862	20.75
567.204	20.85
567.545	20.88
567.887	20.92
568.229	20.96
568.57	21.06
568.912	21.11
569.253	21.25
569.595	21.31
569.936	21.4
570.277	21.53
570.619	21.55
570.96	21.62
571.301	21.71
571.642	21.82
571.984	21.86
572.325	21.95
572.666	22.01
573.007	22.07
573.348	22.11
573.689	22.2
574.03	22.29
574.37	22.39
574.711	22.45
575.052	22.54
575.393	22.66
575.733	22.71
576.074	22.76
576.414	22.85
576.755	22.94
577.095	23.04
577.436	23.11
577.776	23.14
578.117	23.23
578.457	23.33
578.797	23.41
579.137	23.43
579.478	23.52
579.818	23.58
580.158	23.68
580.498	23.75
580.838	23.81
581.178	23.88
581.518	23.95
581.858	24
582.197	24.06
582.537	24.11
582.877	24.2
583.217	24.31
583.556	24.39
583.896	24.47
584.235	24.55
584.575	24.66
584.914	24.76
585.254	24.89
585.593	24.99
585.933	25.09
586.272	25.17
586.611	25.28
586.95	25.35
587.289	25.46
587.629	25.52
587.968	25.59
588.307	25.69
588.646	25.79
588.985	25.86
589.323	25.95
589.662	26.07
590.001	26.18
590.34	26.27
590.679	26.38
591.017	26.48
591.356	26.62
591.695	26.72
592.033	26.85
592.372	26.94
592.71	27.06
593.048	27.22
593.387	27.31
593.725	27.38
594.063	27.48
594.402	27.59
594.74	27.7
595.078	27.76
595.416	27.85
595.754	27.91
596.092	28.01
596.43	28.11
596.768	28.21
597.106	28.32
597.444	28.45
597.781	28.59
598.119	28.69
598.457	28.74
598.795	28.85
599.132	28.97
599.47	29
599.807	29.08
600.145	29.18
600.482	29.25
600.82	29.32
601.157	29.37
601.494	29.42
601.831	29.48
602.169	29.59
602.506	29.68
602.843	29.76
603.18	29.92
603.517	29.98
603.854	30.08
604.191	30.14
604.528	30.24
604.865	30.36
605.202	30.46
605.538	30.55
605.875	30.68
606.212	30.81
606.548	30.88
606.885	30.99
607.222	31.14
607.558	31.22
607.895	31.32
608.231	31.4
608.567	31.48
608.904	31.53
609.24	31.66
609.576	31.77
609.912	31.81
610.248	31.94
610.585	32.02
610.921	32.14
611.257	32.24
611.593	32.34
611.929	32.48
612.264	32.58
612.6	32.73
612.936	32.82
613.272	32.84
613.608	32.98
613.943	33.09
614.279	33.14
614.614	33.26
614.95	33.35
615.285	33.51
615.621	33.57
615.956	33.69
616.292	33.83
616.627	33.91
616.962	34.05
617.297	34.18
617.632	34.29
617.968	34.44
618.303	34.48
618.638	34.56
618.973	34.6
619.308	34.79
619.643	34.84
619.977	34.9
620.312	35.03
620.647	35.12
620.982	35.15
621.316	35.18
621.651	35.27
621.986	35.37
622.32	35.54
622.655	35.69
622.989	35.72
623.324	35.84
623.658	35.9
623.992	35.99
624.326	36.12
624.661	36.32
624.995	36.47
625.329	36.58
625.663	36.7
625.997	36.75
626.331	36.8
626.665	36.93
626.999	37.03
627.333	37.19
627.667	37.29
628.001	37.33
628.334	37.37
628.668	37.47
629.002	37.57
629.335	37.71
629.669	37.84
630.002	37.93
630.336	38.07
630.669	38.16
631.003	38.23
631.336	38.42
631.669	38.62
632.003	38.74
632.336	38.87
632.669	38.99
633.002	39.08
633.335	39.14
633.668	39.3
634.001	39.36
634.334	39.56
634.667	39.68
635	39.78
635.333	39.91
635.665	40.02
635.998	40.11
636.331	40.27
636.663	40.41
636.996	40.61
637.328	40.73
637.661	40.86
637.993	40.93
638.326	41.09
638.658	41.14
638.99	41.16
639.323	41.32
639.655	41.42
639.987	41.45
640.319	41.51
640.651	41.58
640.983	41.64
641.315	41.74
641.647	41.88
641.979	41.98
642.311	42.09
642.643	42.2
642.975	42.13
643.306	42.21
643.638	42.39
643.97	42.47
644.301	42.61
644.633	42.77
644.964	42.92
645.296	42.99
645.627	43.08
645.959	43.19
646.29	43.34
646.621	43.51
646.952	43.56
647.284	43.57
647.615	43.74
647.946	43.84
648.277	43.86
648.608	43.87
648.939	43.88
649.27	43.9
649.601	44.03
649.931	44.04
650.262	44.11
650.593	44.2
650.924	44.35
651.254	44.45
651.585	44.4
651.915	44.5
652.246	44.6
652.576	44.72
652.907	44.87
653.237	44.84
653.568	45.02
653.898	45.18
654.228	45.33
654.558	45.34
654.888	45.33
655.219	45.41
655.549	45.17
655.879	44.79
656.209	44.29
656.539	43.94
656.868	43.81
657.198	43.6
657.528	43.46
657.858	43.33
658.188	43.31
658.517	43.31
658.847	43.35
659.176	43.43
659.506	43.57
659.835	43.76
660.165	43.94
660.494	44.11
660.824	44.29
661.153	44.48
661.482	44.71
661.811	44.96
662.14	45.19
662.47	45.38
662.799	45.6
663.128	45.78
663.457	46
663.786	46.16
664.114	46.28
664.443	46.43
664.772	46.62
665.101	46.81
665.43	46.95
665.758	47.08
666.087	47.34
666.415	47.63
666.744	47.87
667.072	48.05
667.401	48.37
667.729	48.65
668.058	48.8
668.386	48.91
668.714	49.01
669.042	49.06
669.371	49.15
669.699	49.17
670.027	49.26
670.355	49.38
670.683	49.47
671.011	49.39
671.339	49.31
671.666	49.42
671.994	49.58
672.322	49.69
672.65	49.84
672.977	49.98
673.305	50.05
673.633	50.09
673.96	50.14
674.288	50.18
674.615	50.29
674.943	50.31
675.27	50.27
675.597	50.23
675.924	50.21
676.252	50.23
676.579	50.19
676.906	50.32
677.233	50.43
677.56	50.47
677.887	50.6
678.214	50.62
678.541	50.73
678.868	50.86
679.195	51.02
679.521	51.14
679.848	51.23
680.175	51.36
680.501	51.44
680.828	51.4
681.154	51.48
681.481	51.51
681.807	51.59
682.134	51.72
682.46	51.8
682.787	51.82
683.113	51.81
683.439	51.8
683.765	51.87
684.091	51.89
684.417	52.06
684.743	52.19
685.069	52.34
685.395	52.44
685.721	52.46
686.047	52.43
686.373	52.45
686.699	52.54
687.024	52.61
687.35	52.76
687.676	52.78
688.001	52.77
688.327	52.78
688.652	52.73
688.978	52.74
689.303	52.89
689.629	53.06
689.954	53.13
690.279	53.3
690.604	53.34
690.93	53.27
691.255	53.4
691.58	53.53
691.905	53.62
692.23	53.68
692.555	53.83
692.88	53.89
693.204	53.89
693.529	54
693.854	53.95
694.179	54.05
694.503	54.16
694.828	54.23
695.153	54.31
695.477	54.39
695.802	54.48
696.126	54.48
696.451	54.5
696.775	54.58
697.099	54.63
697.423	54.7
697.748	54.74
698.072	54.7
698.396	54.66
698.72	54.6
699.044	54.6
699.368	54.54
699.692	54.59
700.016	54.7
700.34	54.77
700.664	54.88
700.987	54.99
701.311	55
701.635	55.19
701.958	55.38
702.282	55.52
702.606	55.49
702.929	55.65
703.252	55.75
703.576	55.75
703.899	55.79
704.223	55.82
704.546	55.87
704.869	55.9
705.192	55.83
705.515	55.86
705.838	55.98
706.161	56.08
706.484	56.02
706.807	56.08
707.13	56.17
707.453	56.17
707.776	56.28
708.099	56.32
708.421	56.5
708.744	56.56
709.067	56.48
709.389	56.43
709.712	56.54
710.034	56.69
710.357	56.66
710.679	56.56
711.001	56.67
711.324	56.56
711.646	56.6
711.968	56.64
712.29	56.63
712.612	56.68
712.935	56.77
713.257	56.84
713.579	56.97
713.9	57.07
714.222	57.16
714.544	57.18
714.866	57.34
715.188	57.38
715.509	57.32
715.831	57.37
716.153	57.47
716.474	57.4
716.796	57.47
717.117	57.51
717.439	57.55
717.76	57.52
718.081	57.53
718.403	57.58
718.724	57.7
719.045	57.8
719.366	57.92
719.687	57.99
720.009	58.16
720.33	58.23
720.651	58.17
720.971	58.18
721.292	58.31
721.613	58.4
721.934	58.39
722.255	58.46
722.575	58.5
722.896	58.54
723.217	58.65
723.537	58.54
723.858	58.44
724.178	58.48
724.499	58.54
724.819	58.71
725.139	58.76
725.46	58.78
725.78	58.66
726.1	58.64
726.42	58.68
726.74	58.72
727.06	58.8
727.38	58.83
727.7	58.83
728.02	58.95
728.34	59.01
728.66	58.99
728.98	58.97
729.299	59.16
729.619	59.32
729.939	59.48
730.258	59.48
730.578	59.54
730.897	59.63
731.217	59.76
731.536	59.78
731.856	59.71
732.175	59.84
732.494	60.06
732.814	60.01
733.133	59.93
733.452	59.88
733.771	59.86
734.09	59.84
734.409	59.87
734.728	59.95
735.047	60.02
735.366	60
735.684	60.07
736.003	60
736.322	60.09
736.641	60.18
736.959	60.26
737.278	60.37
737.596	60.43
737.915	60.56
738.233	60.53
738.552	60.51
738.87	60.71
739.188	60.7
739.507	60.72
739.825	60.76
740.143	60.87
740.461	60.75
740.779	60.73
741.097	60.89
741.415	60.71
741.733	60.66
742.051	60.71
742.369	60.67
742.687	60.74
743.004	60.9
743.322	60.83
743.64	60.77
743.957	60.96
744.275	61
744.593	61.12
744.91	61.34
745.227	61.44
745.545	61.44
745.862	61.48
746.179	61.54
746.497	61.4
746.814	61.45
747.131	61.62
747.448	61.61
747.765	61.68
748.082	61.54
748.399	61.56
748.716	61.74
749.033	61.85
749.35	61.86
749.667	61.76
749.983	62.05
750.3	62.21
750.617	62.07
750.933	62.1
751.25	61.98
751.566	62
751.883	62.23
752.199	61.98
752.516	61.98
752.832	62.08
753.148	62.37
753.464	62.2
753.781	62.1
754.097	62.16
754.413	62.33
754.729	62.42
755.045	62.44
755.361	62.44
755.677	62.63
755.992	62.71
756.308	62.73
756.624	62.61
756.94	62.64
757.255	62.78
757.571	62.88
757.887	62.78
758.202	62.87
758.518	62.96
758.833	62.88
759.148	63
759.464	62.77
759.779	62.85
760.094	62.86
760.41	62.94
760.725	62.81
761.04	62.95
761.355	62.9
761.67	62.85
761.985	62.85
762.3	62.71
762.615	62.7
762.93	62.89
763.244	62.8
763.559	62.73
763.874	62.74
764.188	62.76
764.503	62.77
764.818	62.74
765.132	62.92
765.447	63.14
765.761	63.39
766.075	63.42
766.39	63.51
766.704	63.61
767.018	63.75
767.332	63.72
767.646	63.92
767.961	63.65
768.275	64.02
768.589	64.02
768.903	64
769.216	64.04
769.53	63.97
769.844	63.88
770.158	63.98
770.472	63.88
770.785	63.99
771.099	64
771.413	64.33
771.726	64.31
772.04	64.31
772.353	64.22
772.666	64.13
772.98	64.38
773.293	64.39
773.606	64.37
773.919	64.64
774.233	64.54
774.546	64.55
774.859	64.44
775.172	64.45
775.485	64.48
775.798	64.46
776.111	64.56
776.423	64.55
776.736	64.76
777.049	64.88
777.362	64.89
777.674	64.99
777.987	65.21
778.299	65.37
778.612	65.2
778.924	65.26
779.237	65.53
779.549	65.58
779.862	65.69
780.174	65.61
780.486	65.59
780.798	65.48
781.11	65.59
781.422	65.3
781.735	65.46
782.046	65.74
782.358	65.84
782.67	65.75
782.982	65.84
783.294	65.8
783.606	66.09
783.917	66.04
784.229	66.02
784.541	66.03
784.852	66.21
785.164	66.04
785.475	65.99
785.787	66.01
786.098	66.1
786.41	65.96
786.721	65.95
787.032	65.59
787.343	65.62
787.654	65.64
787.966	65.66
788.277	65.62
788.588	65.81
788.899	65.78
789.209	66.13
789.52	66.13
789.831	66.21
790.142	66.23
790.453	66.39
790.763	66.69
791.074	66.76
791.385	66.86
791.695	66.97
792.006	66.89
792.316	67.2
792.626	66.96
792.937	67.02
793.247	67.35
793.557	67.49
793.868	67.61
794.178	67.6
794.488	67.8
794.798	67.95
795.108	68.23
795.418	68.5
795.728	68.22
796.038	67.98
796.348	67.89
796.657	67.71
796.967	67.43
797.277	67.41
797.587	67.35
797.896	67.42
798.206	67.34
798.515	67.22
798.825	66.98
799.134	67.12
799.444	67.16
799.753	67.4
800.062	67.66
800.371	67.96
800.681	68.23
800.99	68.18
801.299	68.09
801.608	67.74
801.917	67.79
802.226	68
802.535	67.86
802.844	68.17
803.152	67.63
803.461	67.41
803.77	67.49
804.078	67.48
804.387	67.19
804.696	67.14
805.004	67.65
805.313	67.46
805.621	67.45
805.93	67.77
806.238	67.84
806.546	68.07
806.854	68.16
807.163	68.14
807.471	68.24
807.779	68.52
808.087	68.26
808.395	68.34
808.703	68.63
809.011	68.51
809.319	68.42
809.626	68.44
809.934	68.56
810.242	68.46
810.55	68.43
810.857	68.1
811.165	68.19
811.472	68.66
811.78	68.94
812.087	69.49
812.395	69.76
812.702	69.74
813.009	69.57
813.317	69.65
813.624	69.96
813.931	70.01
814.238	70.62
814.545	70.69
814.852	70.74
815.159	70.76
815.466	70.21
815.773	70.1
816.08	70.49
816.387	70.24
816.693	70.27
817	70.26
817.307	70.62
817.613	70.34
817.92	70.51
818.226	70.24
818.533	69.77
818.839	69.82
819.146	69.87
819.452	69.62
819.758	70.19
820.064	69.89
820.371	69.51
820.677	69.27
820.983	69.17
821.289	68.93
821.595	69.12
821.901	69.01
822.207	68.75
822.512	68.93
822.818	68.96
823.124	68.54
823.43	68.67
823.735	68.67
824.041	68.44
824.347	68.67
824.652	68.97
824.957	68.62
825.263	69.22
825.568	69.35
825.874	69.37
826.179	69.25
826.484	69.04
826.789	69.6
827.094	69.68
827.399	69.69
827.705	69.56
828.01	69.67
828.314	70.27
828.619	70.02
828.924	70.15
829.229	69.98
829.534	70.43
829.838	70.79
830.143	70.55
830.448	70.4
830.752	70.55
831.057	70.74
831.361	70.77
831.666	70.44
831.97	70.1
832.274	70.04
832.579	70.39
832.883	70.77
833.187	70.86
833.491	70.88
833.795	71.51
834.099	71.54
834.403	71.67
834.707	71.13
835.011	71.32
835.315	71.99
835.619	71.35
835.923	70.86
836.226	69.53
836.53	70.02
836.834	70.59
837.137	70.77
837.441	70.52
837.744	70.26
838.048	70.52
838.351	70.96
838.654	70.21
838.958	70.86
839.261	71.23
839.564	71.96
839.867	71.5
840.17	71.1
840.473	70.91
840.776	71.62
841.079	72.12
841.382	72.25
841.685	72.52
841.988	73.13
842.291	73.25
842.593	73.5
842.896	73.6
843.199	74.56
843.501	74.67
843.804	74.47
844.106	73.81
844.409	73.58
844.711	74.26
845.013	73.49
845.316	73.09
845.618	73.07
845.92	72.14
846.222	71.71
846.524	71.1
846.826	71.6
847.128	72.33
847.43	72.24
847.732	72.08
848.034	71.68
848.336	71.8
848.638	72.05
848.939	71.88
849.241	73.25
849.543	74.22
849.844	73.26
850.146	73.09
850.447	72.22
850.749	72.88
851.05	72.75
851.351	71.5
851.653	71.77
851.954	71.99
852.255	71.88
852.556	71.05
852.857	70.34
853.158	71.96
853.459	71.48
853.76	71.95
854.061	71.32
854.362	71.18
854.663	72.57
854.964	72.31
855.264	72.78
855.565	72.71
855.866	72.73
856.166	71.95
856.467	70.82
856.767	70.78
857.068	70.29
857.368	70.85
857.668	71.93
857.969	71.81
858.269	70.83
858.569	70.23
858.869	70.51
859.169	70.01
859.469	70.74
859.769	70.83
860.069	70.76
860.369	71.19
860.669	71.09
860.969	70.88
861.269	71.07
861.568	72.33
861.868	73.13
862.168	73.33
862.467	73.57
862.767	73.09
863.066	73.02
863.366	73.2
863.665	73.36
863.964	72.88
864.264	71.86
864.563	71.29
864.862	70.84
865.161	69.7
865.46	69.65
865.759	69.43
866.058	69.27
866.357	70.02
866.656	68.87
866.955	67.89
867.254	67.54
867.552	67.82
867.851	67.17
868.15	66.95
868.448	66.74
868.747	66.08
869.045	66.23
869.344	67
869.642	66.54
869.941	66.97
870.239	67.49
870.537	68.86
870.836	68.77
871.134	67.62
871.432	67.62
871.73	68.55
872.028	69.17
872.326	68.02
872.624	67
872.922	67.83
873.22	69.44
873.517	68.39
873.815	67.46
874.113	65.7
874.411	67.5
874.708	67.66
875.006	67.54
875.303	67.84
875.601	68.91
875.898	70.07
876.195	69.95
876.493	69.14
876.79	70.2
877.087	70.21
877.384	71.89
877.682	71.97
877.979	72.4
878.276	72.43
878.573	72.07
878.87	72.53
879.166	72.18
879.463	70.69
