Data from troilus_ven_HW_orange_left_6_Reflection__0__232.txt Node

Date: Mon Dec 12 16:17:08 EST 2022
User: abbyrobinson
Spectrometer: USB2G8287
Scans to average: 10
Trigger mode: 4
Integration Time (sec): 1.000000E-1
Electric dark correction enabled: true
Boxcar width: 5
XAxis mode: Wavelengths
Number of Pixels in Spectrum: 2048
>>>>>Begin Spectral Data<<<<<
177.272	104.93
177.658	104.29
178.044	106.16
178.43	101.01
178.816	112.05
179.203	94.47
179.589	105.91
179.975	102.99
180.361	118.79
180.747	112.37
181.133	101.2
181.519	92.77
181.904	104.29
182.29	98.27
182.676	85.05
183.062	89.96
183.447	77.62
183.833	66.99
184.219	66.45
184.604	64.56
184.99	60.13
185.375	68.04
185.761	114.62
186.146	119.78
186.531	176.34
186.917	265.42
187.302	-1470
187.687	-261.84
188.073	-167.76
188.458	-191.63
188.843	-192.46
189.228	-225.98
189.613	-1468.09
189.998	-1121.36
190.383	3168.29
190.768	1687.01
191.153	-408.39
191.538	-316.89
191.923	-180.25
192.307	-271.79
192.692	-162.71
193.077	-132.41
193.461	-106.54
193.846	-86.68
194.231	-81.02
194.615	-85.25
195	-58
195.384	-135.33
195.769	-139.29
196.153	-119.04
196.537	-106.04
196.922	-141.72
197.306	-107.06
197.69	-111.96
198.074	-101.88
198.458	-99.9
198.843	-81.55
199.227	-82.58
199.611	-79.02
199.995	-72.12
200.379	-113.08
200.763	-124.21
201.146	-111.16
201.53	-156
201.914	-159.85
202.298	-130.98
202.681	-133.39
203.065	-117.68
203.449	-125.42
203.832	-136.07
204.216	-179.51
204.599	49.31
204.983	54.68
205.366	52.99
205.75	55.25
206.133	54.29
206.516	49.88
206.9	44.47
207.283	41.36
207.666	38.86
208.049	48.47
208.432	51.08
208.815	-145.14
209.198	-298.56
209.581	-302.88
209.964	-224.81
210.347	-179.2
210.73	-133.88
211.113	-118.97
211.496	-94.64
211.879	-107.19
212.261	-160.02
212.644	-150.47
213.027	-127.02
213.409	-108.29
213.792	-135.16
214.174	-156.03
214.557	-106.85
214.939	-134.04
215.322	-119.07
215.704	-123.67
216.086	-122.59
216.469	-130.15
216.851	-158.69
217.233	-200.35
217.615	-195.81
217.997	-144.81
218.379	-124.74
218.761	-128.26
219.143	-84.19
219.525	-104.37
219.907	-83.75
220.289	-62.23
220.671	-54.34
221.053	-47.65
221.435	-45.29
221.816	-42.47
222.198	-42.1
222.58	-40.86
222.961	-50.7
223.343	-68.86
223.724	-57.56
224.106	-77.77
224.487	-100.99
224.869	-93.74
225.25	-97.63
225.631	-102.37
226.013	-75.31
226.394	-74.8
226.775	-77.29
227.156	-71.23
227.537	-62.87
227.919	-70.47
228.3	-59.74
228.681	-57.05
229.062	-60.46
229.442	-59.35
229.823	-51.11
230.204	-54.85
230.585	-52.49
230.966	-50.38
231.347	-46.67
231.727	-44.62
232.108	-37.51
232.488	-32.02
232.869	-27.64
233.25	-23.59
233.63	-19.46
234.01	-18.63
234.391	-17.39
234.771	-12.92
235.152	-9.15
235.532	-9.26
235.912	-7.36
236.292	-6.65
236.672	-6.17
237.053	-4.68
237.433	-4.21
237.813	-3.84
238.193	-3.33
238.573	-2.73
238.953	-3.25
239.333	-4.64
239.712	-3.69
240.092	-3.44
240.472	-2.75
240.852	-1.94
241.231	-1.79
241.611	-1.4
241.991	-0.52
242.37	0.1
242.75	0.57
243.129	0.84
243.509	2.09
243.888	2.28
244.267	2.45
244.647	2.66
245.026	2.76
245.405	2.84
245.784	3.07
246.164	2.84
246.543	2.8
246.922	2.58
247.301	2.81
247.68	2.78
248.059	3.12
248.438	3.2
248.817	3.13
249.195	2.95
249.574	3.06
249.953	3.17
250.332	3.22
250.71	3.41
251.089	3.79
251.468	3.78
251.846	3.58
252.225	3.49
252.603	3.58
252.982	3.76
253.36	3.84
253.738	3.98
254.117	3.93
254.495	3.96
254.873	3.93
255.251	3.76
255.63	3.9
256.008	4.07
256.386	3.97
256.764	3.91
257.142	3.83
257.52	3.79
257.898	3.68
258.276	3.73
258.653	3.66
259.031	3.71
259.409	3.74
259.787	3.73
260.164	3.72
260.542	3.86
260.92	3.8
261.297	3.86
261.675	3.85
262.052	3.84
262.43	3.87
262.807	3.93
263.184	3.74
263.562	3.79
263.939	3.79
264.316	3.76
264.693	3.74
265.07	3.88
265.448	3.84
265.825	3.88
266.202	3.85
266.579	3.9
266.956	3.92
267.333	4
267.709	3.91
268.086	3.69
268.463	3.72
268.84	3.6
269.216	3.54
269.593	3.47
269.97	3.45
270.346	3.36
270.723	3.3
271.099	3.19
271.476	3.23
271.852	3.22
272.229	3.35
272.605	3.32
272.981	3.33
273.358	3.25
273.734	3.22
274.11	3.16
274.486	3.28
274.862	3.35
275.238	3.46
275.614	3.39
275.99	3.41
276.366	3.4
276.742	3.24
277.118	3.26
277.494	3.37
277.87	3.45
278.245	3.55
278.621	3.59
278.997	3.5
279.372	3.51
279.748	3.56
280.123	3.58
280.499	3.52
280.874	3.67
281.25	3.66
281.625	3.63
282	3.59
282.376	3.55
282.751	3.49
283.126	3.58
283.501	3.55
283.876	3.44
284.252	3.52
284.627	3.59
285.002	3.62
285.377	3.63
285.751	3.63
286.126	3.58
286.501	3.54
286.876	3.49
287.251	3.33
287.625	3.36
288	3.38
288.375	3.27
288.749	3.16
289.124	3.11
289.498	3.12
289.873	3.03
290.247	3.14
290.622	3.13
290.996	3.15
291.37	3.15
291.745	3.05
292.119	3.13
292.493	3.16
292.867	3.27
293.241	3.29
293.616	3.3
293.99	3.39
294.364	3.34
294.737	3.36
295.111	3.37
295.485	3.43
295.859	3.48
296.233	3.43
296.607	3.48
296.98	3.51
297.354	3.51
297.728	3.54
298.101	3.45
298.475	3.46
298.848	3.47
299.222	3.45
299.595	3.32
299.968	3.28
300.342	3.27
300.715	3.13
301.088	3
301.462	2.91
301.835	2.79
302.208	2.73
302.581	2.73
302.954	2.73
303.327	2.84
303.7	2.97
304.073	2.97
304.446	2.9
304.819	3.05
305.192	3.07
305.564	3.21
305.937	3.26
306.31	3.38
306.682	3.39
307.055	3.38
307.428	3.32
307.8	3.22
308.173	3.22
308.545	3.24
308.917	3.11
309.29	3.06
309.662	2.94
310.034	3.07
310.407	2.93
310.779	2.81
311.151	2.87
311.523	2.86
311.895	2.92
312.267	3
312.639	2.99
313.011	3.06
313.383	3.16
313.755	3.13
314.127	2.99
314.498	3.05
314.87	3.05
315.242	2.99
315.614	2.94
315.985	2.87
316.357	2.78
316.728	2.78
317.1	2.72
317.471	2.61
317.843	2.66
318.214	2.63
318.585	2.66
318.957	2.71
319.328	2.75
319.699	2.71
320.07	2.81
320.441	2.87
320.813	2.93
321.184	2.92
321.555	2.9
321.926	2.88
322.297	2.94
322.667	3.03
323.038	2.99
323.409	3.07
323.78	3.02
324.151	2.99
324.521	2.93
324.892	2.92
325.262	2.97
325.633	2.96
326.004	2.95
326.374	2.98
326.744	2.84
327.115	2.84
327.485	2.67
327.855	2.78
328.226	2.75
328.596	2.72
328.966	2.73
329.336	2.69
329.706	2.75
330.076	2.72
330.447	2.67
330.816	2.64
331.186	2.68
331.556	2.75
331.926	2.71
332.296	2.68
332.666	2.71
333.036	2.56
333.405	2.54
333.775	2.47
334.144	2.44
334.514	2.3
334.884	2.23
335.253	2.23
335.623	2.17
335.992	2.15
336.361	2.24
336.731	2.13
337.1	2.11
337.469	2.09
337.838	2.06
338.208	2.02
338.577	2.08
338.946	2.14
339.315	2.18
339.684	2.16
340.053	2.17
340.422	2.12
340.79	2.04
341.159	2.01
341.528	1.95
341.897	1.9
342.266	1.9
342.634	1.92
343.003	1.9
343.371	1.72
343.74	1.68
344.108	1.57
344.477	1.47
344.845	1.58
345.214	1.54
345.582	1.59
345.95	1.68
346.319	1.62
346.687	1.6
347.055	1.65
347.423	1.72
347.791	1.65
348.159	1.75
348.527	1.9
348.895	1.86
349.263	1.97
349.631	1.99
349.999	1.9
350.367	1.94
350.734	1.82
351.102	1.81
351.47	1.84
351.837	1.92
352.205	1.88
352.573	1.83
352.94	1.87
353.308	1.84
353.675	1.86
354.042	1.9
354.41	1.88
354.777	1.9
355.144	1.82
355.511	1.79
355.879	1.71
356.246	1.73
356.613	1.67
356.98	1.61
357.347	1.62
357.714	1.48
358.081	1.46
358.448	1.46
358.815	1.41
359.181	1.41
359.548	1.41
359.915	1.43
360.282	1.4
360.648	1.28
361.015	1.23
361.381	1.27
361.748	1.45
362.114	1.44
362.481	1.41
362.847	1.42
363.214	1.45
363.58	1.38
363.946	1.44
364.312	1.32
364.678	1.42
365.045	1.53
365.411	1.47
365.777	1.37
366.143	1.45
366.509	1.52
366.875	1.62
367.241	1.64
367.606	1.67
367.972	1.65
368.338	1.67
368.704	1.64
369.069	1.65
369.435	1.63
369.801	1.52
370.166	1.46
370.532	1.41
370.897	1.38
371.263	1.29
371.628	1.29
371.993	1.23
372.359	1.31
372.724	1.22
373.089	1.1
373.454	1.13
373.82	1.19
374.185	1.13
374.55	1.12
374.915	1.16
375.28	1.2
375.645	1.18
376.01	1.25
376.374	1.25
376.739	1.29
377.104	1.33
377.469	1.29
377.833	1.27
378.198	1.29
378.563	1.35
378.927	1.23
379.292	1.21
379.656	1.17
380.021	1.06
380.385	1.01
380.749	1.02
381.114	1.07
381.478	1.05
381.842	1.08
382.206	1.13
382.571	1.08
382.935	1.1
383.299	1.12
383.663	1.14
384.027	1.25
384.391	1.26
384.755	1.27
385.118	1.2
385.482	1.16
385.846	1.15
386.21	1.02
386.573	0.98
386.937	1
387.301	1.01
387.664	1.02
388.028	0.98
388.391	1.01
388.755	0.95
389.118	0.97
389.481	1.06
389.845	1.15
390.208	1.26
390.571	1.32
390.934	1.39
391.298	1.38
391.661	1.39
392.024	1.4
392.387	1.38
392.75	1.4
393.113	1.42
393.476	1.44
393.838	1.39
394.201	1.38
394.564	1.42
394.927	1.36
395.289	1.35
395.652	1.35
396.015	1.35
396.377	1.39
396.74	1.41
397.102	1.43
397.465	1.35
397.827	1.41
398.189	1.46
398.552	1.44
398.914	1.37
399.276	1.4
399.638	1.49
400	1.52
400.363	1.51
400.725	1.52
401.087	1.49
401.449	1.55
401.81	1.55
402.172	1.57
402.534	1.59
402.896	1.67
403.258	1.69
403.619	1.68
403.981	1.69
404.343	1.73
404.704	1.7
405.066	1.69
405.427	1.65
405.789	1.65
406.15	1.6
406.512	1.53
406.873	1.5
407.234	1.47
407.596	1.39
407.957	1.34
408.318	1.32
408.679	1.31
409.04	1.42
409.401	1.44
409.762	1.31
410.123	1.26
410.484	1.32
410.845	1.36
411.206	1.37
411.567	1.4
411.927	1.41
412.288	1.37
412.649	1.69
413.009	1.69
413.37	1.69
413.731	1.83
414.091	1.86
414.452	1.83
414.812	1.8
415.172	1.82
415.533	1.82
415.893	1.81
416.253	1.82
416.613	1.55
416.974	1.49
417.334	1.42
417.694	1.4
418.054	1.41
418.414	1.39
418.774	1.38
419.134	1.37
419.494	1.38
419.853	1.39
420.213	1.38
420.573	1.4
420.933	1.36
421.292	1.41
421.652	1.35
422.011	1.4
422.371	1.46
422.73	1.54
423.09	1.55
423.449	1.48
423.809	1.47
424.168	1.49
424.527	1.49
424.887	1.52
425.246	1.54
425.605	1.6
425.964	1.51
426.323	1.49
426.682	1.44
427.041	1.45
427.4	1.53
427.759	1.56
428.118	1.58
428.477	1.61
428.835	1.61
429.194	1.6
429.553	1.57
429.911	1.64
430.27	1.63
430.629	1.7
430.987	1.71
431.346	1.67
431.704	1.7
432.062	1.69
432.421	1.66
432.779	1.72
433.137	1.75
433.496	1.72
433.854	1.68
434.212	1.69
434.57	1.7
434.928	1.68
435.286	1.7
435.644	1.68
436.002	1.64
436.36	1.68
436.718	1.59
437.075	1.59
437.433	1.63
437.791	1.6
438.149	1.6
438.506	1.47
438.864	1.44
439.221	1.43
439.579	1.47
439.936	1.5
440.294	1.53
440.651	1.55
441.009	1.52
441.366	1.54
441.723	1.58
442.08	1.58
442.437	1.65
442.795	1.75
443.152	1.8
443.509	1.71
443.866	1.7
444.223	1.72
444.58	1.72
444.936	1.76
445.293	1.8
445.65	1.83
446.007	1.87
446.363	1.86
446.72	1.83
447.077	1.83
447.433	1.88
447.79	1.92
448.146	1.87
448.503	1.86
448.859	1.82
449.215	1.85
449.572	1.89
449.928	1.93
450.284	1.97
450.641	1.95
450.997	1.97
451.353	1.96
451.709	1.93
452.065	2
452.421	2.01
452.777	2.02
453.133	1.97
453.488	1.89
453.844	1.9
454.2	1.89
454.556	1.98
454.911	1.96
455.267	1.97
455.623	2
455.978	1.98
456.334	2.04
456.689	2.11
457.045	2.13
457.4	2.17
457.755	2.13
458.111	2.14
458.466	2.09
458.821	2.11
459.176	2.1
459.531	2.14
459.886	2.11
460.242	2.1
460.597	2.06
460.951	2.04
461.306	2.09
461.661	2.12
462.016	2.11
462.371	2.12
462.726	2.18
463.08	2.25
463.435	2.23
463.79	2.24
464.144	2.24
464.499	2.32
464.853	2.34
465.208	2.36
465.562	2.42
465.916	2.39
466.271	2.38
466.625	2.35
466.979	2.36
467.333	2.39
467.688	2.41
468.042	2.42
468.396	2.4
468.75	2.38
469.104	2.38
469.458	2.33
469.811	2.42
470.165	2.48
470.519	2.51
470.873	2.53
471.227	2.53
471.58	2.56
471.934	2.54
472.287	2.51
472.641	2.5
472.995	2.48
473.348	2.5
473.701	2.44
474.055	2.41
474.408	2.4
474.761	2.41
475.115	2.39
475.468	2.33
475.821	2.48
476.174	2.58
476.527	2.7
476.88	2.7
477.233	2.71
477.586	2.76
477.939	2.79
478.292	2.84
478.645	2.83
478.998	2.84
479.35	2.94
479.703	2.82
480.056	2.76
480.408	2.76
480.761	2.79
481.113	2.83
481.466	2.82
481.818	2.79
482.171	2.78
482.523	2.8
482.875	2.89
483.228	2.87
483.58	2.91
483.932	2.97
484.284	2.99
484.636	3.02
484.988	3.06
485.34	3.15
485.692	3.21
486.044	3.24
486.396	3.29
486.748	3.27
487.1	3.34
487.451	3.37
487.803	3.38
488.155	3.35
488.506	3.36
488.858	3.33
489.209	3.33
489.561	3.34
489.912	3.38
490.264	3.39
490.615	3.41
490.966	3.39
491.318	3.41
491.669	3.39
492.02	3.42
492.371	3.44
492.722	3.47
493.073	3.47
493.424	3.49
493.775	3.48
494.126	3.48
494.477	3.51
494.828	3.5
495.179	3.52
495.53	3.59
495.88	3.63
496.231	3.63
496.582	3.64
496.932	3.65
497.283	3.65
497.633	3.65
497.984	3.74
498.334	3.76
498.684	3.78
499.035	3.8
499.385	3.77
499.735	3.75
500.086	3.78
500.436	3.78
500.786	3.81
501.136	3.8
501.486	3.84
501.836	3.84
502.186	3.84
502.536	3.87
502.886	3.89
503.235	3.94
503.585	3.98
503.935	3.98
504.285	4.06
504.634	4.15
504.984	4.17
505.333	4.18
505.683	4.15
506.032	4.18
506.382	4.14
506.731	4.12
507.08	4.17
507.43	4.19
507.779	4.23
508.128	4.19
508.477	4.15
508.826	4.21
509.176	4.25
509.525	4.31
509.874	4.31
510.222	4.43
510.571	4.5
510.92	4.52
511.269	4.58
511.618	4.64
511.967	4.71
512.315	4.76
512.664	4.75
513.012	4.74
513.361	4.79
513.71	4.85
514.058	4.85
514.406	4.9
514.755	4.88
515.103	4.89
515.451	4.96
515.8	4.98
516.148	5.01
516.496	5.05
516.844	5.13
517.192	5.09
517.54	5.07
517.888	5.13
518.236	5.16
518.584	5.27
518.932	5.26
519.28	5.17
519.628	5.17
519.975	5.2
520.323	5.27
520.671	5.28
521.018	5.3
521.366	5.39
521.713	5.38
522.061	5.43
522.408	5.45
522.756	5.55
523.103	5.64
523.45	5.73
523.798	5.73
524.145	5.73
524.492	5.77
524.839	5.87
525.186	5.9
525.533	5.93
525.88	5.88
526.227	5.95
526.574	6
526.921	6.08
527.268	6.07
527.615	6.14
527.961	6.23
528.308	6.27
528.655	6.3
529.001	6.35
529.348	6.36
529.694	6.44
530.041	6.45
530.387	6.4
530.734	6.37
531.08	6.44
531.426	6.39
531.773	6.47
532.119	6.53
532.465	6.5
532.811	6.5
533.157	6.56
533.503	6.55
533.849	6.6
534.195	6.67
534.541	6.72
534.887	6.73
535.233	6.85
535.579	6.83
535.924	6.84
536.27	6.87
536.616	6.92
536.961	6.99
537.307	7.08
537.652	7.11
537.998	7.14
538.343	7.22
538.689	7.32
539.034	7.39
539.379	7.42
539.725	7.49
540.07	7.59
540.415	7.67
540.76	7.68
541.105	7.71
541.45	7.8
541.795	7.84
542.14	7.85
542.485	7.89
542.83	7.91
543.175	7.97
543.519	7.96
543.864	7.96
544.209	7.92
544.554	7.98
544.898	8.01
545.243	8
545.587	8.07
545.932	8.15
546.276	8.16
546.621	8.15
546.965	8.15
547.309	8.18
547.653	8.31
547.998	8.39
548.342	8.44
548.686	8.52
549.03	8.56
549.374	8.6
549.718	8.63
550.062	8.59
550.406	8.58
550.75	8.63
551.094	8.64
551.437	8.68
551.781	8.68
552.125	8.67
552.468	8.72
552.812	8.74
553.156	8.8
553.499	8.79
553.843	8.94
554.186	9
554.529	9.02
554.873	9.13
555.216	9.11
555.559	9.18
555.902	9.26
556.246	9.28
556.589	9.3
556.932	9.31
557.275	9.38
557.618	9.44
557.961	9.57
558.304	9.64
558.646	9.67
558.989	9.76
559.332	9.83
559.675	9.9
560.017	9.96
560.36	9.96
560.703	10.03
561.045	10.07
561.388	10.06
561.73	10.08
562.073	10.13
562.415	10.19
562.757	10.21
563.1	10.23
563.442	10.24
563.784	10.26
564.126	10.35
564.468	10.39
564.81	10.44
565.152	10.48
565.494	10.48
565.836	10.56
566.178	10.58
566.52	10.59
566.862	10.65
567.204	10.7
567.545	10.71
567.887	10.72
568.229	10.72
568.57	10.72
568.912	10.78
569.253	10.82
569.595	10.83
569.936	10.88
570.277	11
570.619	11.05
570.96	11.13
571.301	11.22
571.642	11.28
571.984	11.32
572.325	11.38
572.666	11.41
573.007	11.46
573.348	11.5
573.689	11.53
574.03	11.51
574.37	11.53
574.711	11.56
575.052	11.59
575.393	11.67
575.733	11.71
576.074	11.74
576.414	11.77
576.755	11.79
577.095	11.83
577.436	11.86
577.776	11.92
578.117	11.96
578.457	12
578.797	12.04
579.137	12.04
579.478	12.09
579.818	12.11
580.158	12.15
580.498	12.18
580.838	12.2
581.178	12.23
581.518	12.27
581.858	12.3
582.197	12.3
582.537	12.32
582.877	12.35
583.217	12.4
583.556	12.44
583.896	12.5
584.235	12.53
584.575	12.58
584.914	12.62
585.254	12.63
585.593	12.67
585.933	12.72
586.272	12.75
586.611	12.8
586.95	12.81
587.289	12.84
587.629	12.86
587.968	12.91
588.307	12.92
588.646	13
588.985	13.06
589.323	13.09
589.662	13.13
590.001	13.18
590.34	13.23
590.679	13.26
591.017	13.3
591.356	13.32
591.695	13.37
592.033	13.41
592.372	13.37
592.71	13.4
593.048	13.47
593.387	13.49
593.725	13.52
594.063	13.55
594.402	13.61
594.74	13.67
595.078	13.74
595.416	13.75
595.754	13.82
596.092	13.91
596.43	13.94
596.768	13.96
597.106	14.04
597.444	14.09
597.781	14.1
598.119	14.1
598.457	14.12
598.795	14.16
599.132	14.18
599.47	14.21
599.807	14.23
600.145	14.31
600.482	14.36
600.82	14.4
601.157	14.43
601.494	14.48
601.831	14.53
602.169	14.54
602.506	14.56
602.843	14.59
603.18	14.6
603.517	14.65
603.854	14.67
604.191	14.71
604.528	14.72
604.865	14.76
605.202	14.81
605.538	14.89
605.875	14.94
606.212	14.97
606.548	15.04
606.885	15.12
607.222	15.12
607.558	15.13
607.895	15.17
608.231	15.18
608.567	15.22
608.904	15.25
609.24	15.26
609.576	15.31
609.912	15.37
610.248	15.35
610.585	15.36
610.921	15.42
611.257	15.48
611.593	15.48
611.929	15.55
612.264	15.57
612.6	15.6
612.936	15.62
613.272	15.64
613.608	15.65
613.943	15.73
614.279	15.75
614.614	15.75
614.95	15.79
615.285	15.83
615.621	15.83
615.956	15.83
616.292	15.89
616.627	15.94
616.962	16.03
617.297	16.07
617.632	16.1
617.968	16.15
618.303	16.17
618.638	16.16
618.973	16.25
619.308	16.3
619.643	16.38
619.977	16.4
620.312	16.4
620.647	16.43
620.982	16.45
621.316	16.49
621.651	16.53
621.986	16.52
622.32	16.63
622.655	16.61
622.989	16.62
623.324	16.65
623.658	16.66
623.992	16.68
624.326	16.68
624.661	16.72
624.995	16.8
625.329	16.87
625.663	16.87
625.997	16.87
626.331	16.91
626.665	16.94
626.999	16.99
627.333	17.03
627.667	17.11
628.001	17.13
628.334	17.13
628.668	17.1
629.002	17.11
629.335	17.26
629.669	17.26
630.002	17.28
630.336	17.35
630.669	17.32
631.003	17.4
631.336	17.41
631.669	17.44
632.003	17.47
632.336	17.49
632.669	17.55
633.002	17.61
633.335	17.68
633.668	17.73
634.001	17.75
634.334	17.87
634.667	17.86
635	17.94
635.333	17.98
635.665	18.09
635.998	18.13
636.331	18.08
636.663	18.14
636.996	18.19
637.328	18.24
637.661	18.29
637.993	18.33
638.326	18.37
638.658	18.33
638.99	18.4
639.323	18.4
639.655	18.43
639.987	18.45
640.319	18.38
640.651	18.42
640.983	18.49
641.315	18.48
641.647	18.45
641.979	18.48
642.311	18.52
642.643	18.52
642.975	18.51
643.306	18.59
643.638	18.7
643.97	18.82
644.301	18.86
644.633	18.88
644.964	18.9
645.296	18.97
645.627	19
645.959	19.05
646.29	19.14
646.621	19.21
646.952	19.19
647.284	19.23
647.615	19.17
647.946	19.17
648.277	19.19
648.608	19.24
648.939	19.26
649.27	19.26
649.601	19.23
649.931	19.18
650.262	19.16
650.593	19.38
650.924	19.42
651.254	19.55
651.585	19.57
651.915	19.59
652.246	19.62
652.576	19.68
652.907	19.72
653.237	19.8
653.568	20
653.898	20.1
654.228	19.98
654.558	20.01
654.888	20.03
655.219	20.12
655.549	20.18
655.879	20.32
656.209	20.4
656.539	20.51
656.868	20.62
657.198	20.65
657.528	20.7
657.858	20.71
658.188	20.69
658.517	20.69
658.847	20.66
659.176	20.64
659.506	20.61
659.835	20.57
660.165	20.51
660.494	20.48
660.824	20.4
661.153	20.35
661.482	20.32
661.811	20.3
662.14	20.25
662.47	20.22
662.799	20.23
663.128	20.26
663.457	20.3
663.786	20.33
664.114	20.37
664.443	20.48
664.772	20.54
665.101	20.62
665.43	20.76
665.758	20.85
666.087	20.97
666.415	21.05
666.744	21.09
667.072	21.19
667.401	21.47
667.729	21.54
668.058	21.51
668.386	21.58
668.714	21.46
669.042	21.46
669.371	21.45
669.699	21.52
670.027	21.48
670.355	21.43
670.683	21.48
671.011	21.4
671.339	21.33
671.666	21.42
671.994	21.43
672.322	21.64
672.65	21.6
672.977	21.76
673.305	21.77
673.633	21.9
673.96	21.88
674.288	21.94
674.615	21.98
674.943	22.13
675.27	22.17
675.597	22.19
675.924	22.24
676.252	22.3
676.579	22.26
676.906	22.33
677.233	22.27
677.56	22.41
677.887	22.37
678.214	22.42
678.541	22.44
678.868	22.39
679.195	22.43
679.521	22.42
679.848	22.57
680.175	22.63
680.501	22.6
680.828	22.69
681.154	22.66
681.481	22.68
681.807	22.68
682.134	22.72
682.46	22.81
682.787	22.83
683.113	22.9
683.439	22.83
683.765	22.85
684.091	22.9
684.417	22.92
684.743	23
685.069	22.99
685.395	23.01
685.721	23.01
686.047	23.02
686.373	23.05
686.699	22.99
687.024	23.09
687.35	23.15
687.676	23.19
688.001	23.29
688.327	23.33
688.652	23.33
688.978	23.38
689.303	23.42
689.629	23.51
689.954	23.59
690.279	23.64
690.604	23.6
690.93	23.57
691.255	23.64
691.58	23.58
691.905	23.61
692.23	23.75
692.555	23.77
692.88	23.73
693.204	23.75
693.529	23.75
693.854	23.74
694.179	23.84
694.503	23.88
694.828	23.91
695.153	24
695.477	23.93
695.802	23.91
696.126	23.96
696.451	23.98
696.775	24.01
697.099	24.08
697.423	24.19
697.748	24.09
698.072	24.19
698.396	24.16
698.72	24.17
699.044	24.21
699.368	24.21
699.692	24.2
700.016	24.3
700.34	24.32
700.664	24.29
700.987	24.27
701.311	24.44
701.635	24.35
701.958	24.42
702.282	24.44
702.606	24.51
702.929	24.65
703.252	24.73
703.576	24.67
703.899	24.78
704.223	24.76
704.546	24.85
704.869	24.75
705.192	24.86
705.515	24.87
705.838	24.87
706.161	24.87
706.484	24.75
706.807	24.8
707.13	24.84
707.453	24.81
707.776	24.86
708.099	24.88
708.421	24.93
708.744	24.86
709.067	24.94
709.389	25
709.712	25.15
710.034	25.23
710.357	25.24
710.679	25.31
711.001	25.3
711.324	25.42
711.646	25.45
711.968	25.53
712.29	25.74
712.612	25.64
712.935	25.67
713.257	25.62
713.579	25.68
713.9	25.73
714.222	25.68
714.544	25.69
714.866	25.72
715.188	25.75
715.509	25.78
715.831	25.7
716.153	25.81
716.474	25.83
716.796	25.91
717.117	26.01
717.439	25.99
717.76	26.06
718.081	26.05
718.403	25.97
718.724	25.95
719.045	25.92
719.366	26.05
719.687	26.06
720.009	26.11
720.33	26.1
720.651	26.07
720.971	26.02
721.292	26.15
721.613	26.1
721.934	26.14
722.255	26.19
722.575	26.28
722.896	26.23
723.217	26.24
723.537	26.27
723.858	26.32
724.178	26.21
724.499	26.21
724.819	26.15
725.139	26.38
725.46	26.4
725.78	26.33
726.1	26.27
726.42	26.3
726.74	26.3
727.06	26.28
727.38	26.27
727.7	26.37
728.02	26.51
728.34	26.48
728.66	26.53
728.98	26.52
729.299	26.72
729.619	26.86
729.939	26.95
730.258	26.99
730.578	27.07
730.897	27.11
731.217	27.13
731.536	27.23
731.856	27.31
732.175	27.33
732.494	27.41
732.814	27.37
733.133	27.38
733.452	27.33
733.771	27.4
734.09	27.47
734.409	27.48
734.728	27.53
735.047	27.39
735.366	27.48
735.684	27.44
736.003	27.53
736.322	27.49
736.641	27.4
736.959	27.5
737.278	27.53
737.596	27.38
737.915	27.57
738.233	27.43
738.552	27.62
738.87	27.68
739.188	27.68
739.507	27.61
739.825	27.62
740.143	27.72
740.461	27.64
740.779	27.63
741.097	27.77
741.415	27.61
741.733	28.01
742.051	27.83
742.369	27.84
742.687	27.96
743.004	27.95
743.322	28.05
743.64	28.08
743.957	28.19
744.275	28.13
744.593	28.2
744.91	28.27
745.227	28.09
745.545	28.31
745.862	28.18
746.179	28.15
746.497	28.27
746.814	28.25
747.131	28.25
747.448	28.37
747.765	28.49
748.082	28.59
748.399	28.62
748.716	28.73
749.033	28.68
749.35	28.88
749.667	28.79
749.983	28.67
750.3	28.8
750.617	28.89
750.933	28.57
751.25	28.56
751.566	28.57
751.883	28.53
752.199	28.56
752.516	28.57
752.832	28.53
753.148	28.69
753.464	28.86
753.781	29.01
754.097	28.96
754.413	29.19
754.729	29.39
755.045	29.36
755.361	29.47
755.677	29.49
755.992	29.58
756.308	29.49
756.624	29.52
756.94	29.5
757.255	29.48
757.571	29.67
757.887	29.71
758.202	29.56
758.518	29.72
758.833	29.75
759.148	29.79
759.464	29.9
759.779	30.07
760.094	30.14
760.41	30.25
760.725	30.25
761.04	30.21
761.355	30.2
761.67	30.27
761.985	30.09
762.3	29.98
762.615	29.91
762.93	29.76
763.244	29.77
763.559	29.77
763.874	29.78
764.188	29.65
764.503	29.64
764.818	29.71
765.132	29.75
765.447	29.84
765.761	29.99
766.075	30.09
766.39	30.3
766.704	30.22
767.018	30.29
767.332	30.29
767.646	30.43
767.961	30.49
768.275	30.45
768.589	30.48
768.903	30.57
769.216	30.57
769.53	30.62
769.844	30.55
770.158	30.64
770.472	30.47
770.785	30.41
771.099	30.35
771.413	30.46
771.726	30.47
772.04	30.46
772.353	30.41
772.666	30.54
772.98	30.57
773.293	30.46
773.606	30.53
773.919	30.87
774.233	31.05
774.546	31.07
774.859	31.04
775.172	31.14
775.485	31.33
775.798	31.43
776.111	31.31
776.423	31.18
776.736	31.43
777.049	31.66
777.362	31.5
777.674	31.52
777.987	31.55
778.299	31.44
778.612	31.51
778.924	31.41
779.237	31.56
779.549	31.69
779.862	31.84
780.174	31.76
780.486	31.55
780.798	31.57
781.11	31.41
781.422	31.62
781.735	31.65
782.046	31.65
782.358	31.84
782.67	31.64
782.982	31.66
783.294	31.85
783.606	31.81
783.917	31.86
784.229	31.93
784.541	32.07
784.852	31.97
785.164	32.1
785.475	32.12
785.787	32
786.098	32.13
786.41	32.15
786.721	31.97
787.032	32.08
787.343	32.22
787.654	32.15
787.966	32.3
788.277	32.41
788.588	32.59
788.899	32.56
789.209	32.56
789.52	32.52
789.831	32.53
790.142	32.67
790.453	32.86
790.763	32.56
791.074	32.36
791.385	32.38
791.695	32.53
792.006	32.49
792.316	32.78
792.626	32.58
792.937	32.63
793.247	32.65
793.557	32.6
793.868	32.53
794.178	32.65
794.488	33.13
794.798	33.12
795.108	33.03
795.418	33.18
795.728	32.85
796.038	33.2
796.348	33.15
796.657	33.07
796.967	32.99
797.277	32.84
797.587	33.05
797.896	33.1
798.206	33.1
798.515	33.04
798.825	32.9
799.134	33.11
799.444	33.08
799.753	33.24
800.062	33.35
800.371	33.52
800.681	33.93
800.99	33.59
801.299	33.45
801.608	33.39
801.917	33.19
802.226	33.39
802.535	33.43
802.844	33.2
803.152	33.18
803.461	33.07
803.77	32.86
804.078	32.45
804.387	32.68
804.696	32.85
805.004	32.59
805.313	33.11
805.621	32.74
805.93	32.81
806.238	33.29
806.546	33.32
806.854	33.47
807.163	33.66
807.471	33.78
807.779	33.92
808.087	33.98
808.395	34.31
808.703	34.14
809.011	34.16
809.319	34.07
809.626	33.67
809.934	33.44
810.242	33.55
810.55	33.75
810.857	33.92
811.165	33.97
811.472	33.69
811.78	33.71
812.087	33.62
812.395	33.88
812.702	34.22
813.009	34.39
813.317	34.82
813.624	34.51
813.931	34.51
814.238	34.5
814.545	34.47
814.852	34.95
815.159	34.84
815.466	34.9
815.773	34.75
816.08	34.43
816.387	34.42
816.693	34.02
817	34.36
817.307	34.1
817.613	34.24
817.92	34.1
818.226	34.09
818.533	34.05
818.839	34.4
819.146	34.58
819.452	34.47
819.758	34.25
820.064	34.57
820.371	34.65
820.677	34.53
820.983	34.24
821.289	34.37
821.595	34.47
821.901	34.58
822.207	34.17
822.512	34.04
822.818	34.32
823.124	35.01
823.43	35
823.735	35.18
824.041	35.65
824.347	35.58
824.652	35.5
824.957	35.22
825.263	35.38
825.568	35.17
825.874	35.32
826.179	34.87
826.484	34.57
826.789	34.26
827.094	33.98
827.399	33.83
827.705	34.08
828.01	34.2
828.314	34.22
828.619	34.39
828.924	34.9
829.229	34.76
829.534	34.75
829.838	34.26
830.143	34.56
830.448	35.12
830.752	35.26
831.057	35.46
831.361	35.62
831.666	35.27
831.97	34.99
832.274	35.56
832.579	35.31
832.883	35.51
833.187	35.97
833.491	36.08
833.795	35.38
834.099	34.92
834.403	34.91
834.707	35.02
835.011	35.25
835.315	35.29
835.619	34.3
835.923	34.55
836.226	34.51
836.53	34.75
836.834	34.64
837.137	35.39
837.441	36.05
837.744	36.41
838.048	36.18
838.351	36.21
838.654	36.31
838.958	36.42
839.261	36.77
839.564	37.11
839.867	37.1
840.17	36.96
840.473	37.05
840.776	36.74
841.079	36.31
841.382	36.04
841.685	36.53
841.988	36.9
842.291	36.67
842.593	36.73
842.896	36.98
843.199	37.12
843.501	37.5
843.804	36.77
844.106	36.73
844.409	37.04
844.711	38.14
845.013	37.47
845.316	36.63
845.618	36.66
845.92	35.74
846.222	35.72
846.524	35.72
846.826	35.4
847.128	35.46
847.43	34.92
847.732	34.9
848.034	33.41
848.336	33.92
848.638	34.6
848.939	34.74
849.241	35.56
849.543	35.95
849.844	35.71
850.146	36.21
850.447	36.02
850.749	36.68
851.05	36.36
851.351	37.53
851.653	36.24
851.954	36.66
852.255	37.37
852.556	36.81
852.857	35.95
853.158	36.44
853.459	35.95
853.76	36.8
854.061	36.88
854.362	37.32
854.663	36.4
854.964	37.55
855.264	36.74
855.565	35.81
855.866	36.88
856.166	37.08
856.467	36.7
856.767	38.19
857.068	38.03
857.368	37.76
857.668	38.05
857.969	37.97
858.269	38.31
858.569	39.38
858.869	40
859.169	39.45
859.469	40.17
859.769	40.06
860.069	38.36
860.369	37.82
860.669	37.9
860.969	38.37
861.269	39.44
861.568	39.82
861.868	39.09
862.168	39.71
862.467	40.53
862.767	39.87
863.066	39.85
863.366	41.25
863.665	41.05
863.964	40.92
864.264	39.09
864.563	38.73
864.862	36.69
865.161	35.39
865.46	35.11
865.759	34.41
866.058	33.41
866.357	33.94
866.656	32.07
866.955	32.11
867.254	31.47
867.552	32.64
867.851	32.46
868.15	33.61
868.448	33.58
868.747	31.88
869.045	30.49
869.344	30.75
869.642	28.89
869.941	29.64
870.239	30.29
870.537	31.78
870.836	30.45
871.134	29.32
871.432	29.48
871.73	30.97
872.028	31.44
872.326	32.67
872.624	34.91
872.922	36.5
873.22	36.82
873.517	38.09
873.815	36.88
874.113	37.12
874.411	38.27
874.708	38.24
875.006	37.31
875.303	36.88
875.601	37.33
875.898	36.47
876.195	36.58
876.493	36.78
876.79	33.45
877.087	33.49
877.384	34.05
877.682	33.7
877.979	33.79
878.276	34.17
878.573	35.4
878.87	34.55
879.166	33.27
879.463	32.17
